,Altitude,Pressure,Temperature,Extinction,Lidarratio
0,7.5,1009.442505,14.443,0.00026,53.365002
1,22.5,1008.977478,14.449,0.000255,53.395
2,37.5,1008.512512,14.455,0.00025,53.424999
3,52.5,1008.047485,14.461,0.000245,53.455002
4,67.5,1007.58252,14.467,0.000239,53.485001
5,82.5,1006.458984,14.479,0.000234,53.470001
6,97.5,1004.677002,14.497,0.000229,53.41
7,112.5,1002.89502,14.515,0.000224,53.349998
8,127.5,1001.11499,14.533,0.000219,53.325001
9,142.5,999.344971,14.551,0.000214,53.474998
10,157.5,997.575012,14.569,0.000209,53.625
11,172.5,995.804993,14.587,0.000204,53.775002
12,187.5,994.044983,14.605,0.000195,53.875
13,202.5,992.287048,14.623,0.000184,53.965
14,217.5,990.528992,14.641,0.000174,54.055
15,232.5,988.774048,14.659,0.000164,54.115002
16,247.5,987.022034,14.677,0.000154,54.145
17,262.5,985.27002,14.695,0.000144,54.174999
18,277.5,983.52002,14.703,0.000136,54.185001
19,292.5,981.780029,14.661,0.000137,54.095001
20,307.5,980.040039,14.619,0.000138,54.005001
21,322.5,978.299988,14.577,0.000139,53.915001
22,337.5,976.567505,14.5125,0.00014,53.875
23,352.5,974.836487,14.4435,0.000142,53.845001
24,367.5,973.105469,14.3745,0.000144,53.814999
25,382.5,971.378967,14.307,0.000144,53.785
26,397.5,969.656982,14.241,0.000143,53.755001
27,412.5,967.934998,14.175,0.000142,53.724998
28,427.5,966.214478,14.109,0.000141,53.720001
29,442.5,964.501465,14.043,0.000144,53.84
30,457.5,962.788513,13.977,0.000146,53.959999
31,472.5,961.0755,13.911,0.000148,54.080002
32,487.5,959.372498,13.845,0.000148,54.125
33,502.5,957.671509,13.779,0.000147,54.154999
34,517.5,955.97052,13.713,0.000146,54.185001
35,532.5,954.270996,13.6455,0.000146,54.244999
36,547.5,952.572998,13.5765,0.000148,54.334999
37,562.5,950.875,13.5075,0.000149,54.424999
38,577.5,949.179016,13.4385,0.00015,54.494999
39,592.5,947.493042,13.3695,0.00015,54.465
40,607.5,945.807007,13.3005,0.00015,54.435001
41,622.5,944.121033,13.2315,0.00015,54.404999
42,637.5,942.442505,13.165,0.000151,54.275002
43,652.5,940.765503,13.099,0.000152,54.125
44,667.5,939.088501,13.033,0.000153,53.974998
45,682.5,937.416016,12.9655,0.000152,53.869999
46,697.5,935.747986,12.8965,0.000151,53.810001
47,712.5,934.080017,12.8275,0.00015,53.75
48,727.5,932.413025,12.757,0.000148,53.695
49,742.5,930.751038,12.679,0.000148,53.665001
50,757.5,929.088989,12.601,0.000147,53.634998
51,772.5,927.427002,12.523,0.000146,53.605
52,787.5,925.77002,12.4325,0.000146,53.575001
53,802.5,924.114014,12.3395,0.000146,53.544998
54,817.5,922.458008,12.2465,0.000145,53.514999
55,832.5,920.807983,12.152,0.000146,53.455002
56,847.5,919.164001,12.056,0.000147,53.365002
57,862.5,917.52002,11.96,0.000148,53.275002
58,877.5,915.877014,11.8645,0.000149,53.185001
59,892.5,914.239014,11.7715,0.00015,53.095001
60,907.5,912.601013,11.6785,0.000151,53.005001
61,922.5,910.963013,11.5855,0.000152,52.915001
62,937.5,909.335022,11.4925,0.000152,52.950001
63,952.5,907.708984,11.3995,0.000153,53.009998
64,967.5,906.083008,11.3065,0.000154,53.07
65,982.5,904.460022,11.218,0.000155,53.205002
66,997.5,902.840027,11.134,0.000155,53.415001
67,1012.5,901.220032,11.05,0.000156,53.625
68,1027.5,899.600525,10.967,0.000156,53.805
69,1042.5,897.983521,10.889,0.000158,53.834999
70,1057.5,896.366516,10.811,0.00016,53.865002
71,1072.5,894.749451,10.733,0.000162,53.895
72,1087.5,893.142456,10.655,0.00016,53.799999
73,1102.5,891.537476,10.577,0.000158,53.68
74,1117.5,889.932495,10.499,0.000156,53.560001
75,1132.5,888.33197,10.421,0.000154,53.514999
76,1147.5,886.736023,10.343,0.000152,53.544998
77,1162.5,885.140015,10.265,0.000151,53.575001
78,1177.5,883.545471,10.187,0.00015,53.625
79,1192.5,881.958496,10.109,0.000153,53.775002
80,1207.5,880.371521,10.031,0.000155,53.924999
81,1222.5,878.784546,9.953,0.000158,54.075001
82,1237.5,877.200012,9.88,0.000159,54.150002
83,1252.5,875.616028,9.808,0.000159,54.209999
84,1267.5,874.031982,9.736,0.00016,54.27
85,1282.5,872.452515,9.664,0.000161,54.224998
86,1297.5,870.877502,9.592,0.000162,54.075001
87,1312.5,869.30249,9.52,0.000164,53.924999
88,1327.5,867.729004,9.448,0.000165,53.77
89,1342.5,866.163025,9.376,0.000166,53.59
90,1357.5,864.596985,9.304,0.000168,53.41
91,1372.5,863.031006,9.232,0.000169,53.23
92,1387.5,861.472534,9.16,0.000167,53.224998
93,1402.5,859.915527,9.088,0.000166,53.255001
94,1417.5,858.358521,9.016,0.000164,53.285
95,1432.5,856.80603,8.944,0.000164,53.330002
96,1447.5,855.257996,8.872,0.000166,53.389999
97,1462.5,853.709961,8.8,0.000168,53.450001
98,1477.5,852.162964,8.7345,0.000164,53.2425
99,1492.5,850.620972,8.7015,0.000134,51.697498
100,1507.5,849.078979,8.6685,0.000103,50.1525
101,1522.5,847.537048,8.6355,7.3e-05,48.607498
102,1537.5,846.0,8.61,5.8e-05,48.810001
103,1552.5,844.463989,8.586,4.6e-05,49.362
104,1567.5,842.927979,8.562,3.4e-05,49.914001
105,1582.5,841.39801,8.538,2.8e-05,50.202
106,1597.5,839.873962,8.514,2.7e-05,50.226002
107,1612.5,838.350037,8.49,2.6e-05,50.25
108,1627.5,836.827026,8.466,2.6e-05,50.27
109,1642.5,835.309021,8.442,2.7e-05,50.27
110,1657.5,833.791016,8.418,2.8e-05,50.27
111,1672.5,832.27301,8.394,2.9e-05,50.27
112,1687.5,830.765015,8.37,2.9e-05,50.43
113,1702.5,829.259033,8.346,3e-05,50.622002
114,1717.5,827.752991,8.322,3.1e-05,50.813999
115,1732.5,826.248474,8.2755,3e-05,50.897999
116,1747.5,824.745483,8.2065,2.9e-05,50.874001
117,1762.5,823.242493,8.1375,2.7e-05,50.849998
118,1777.5,821.740967,8.0685,2.6e-05,50.877998
119,1792.5,820.247009,7.9995,2.8e-05,51.166
120,1807.5,818.752991,7.9305,2.9e-05,51.453999
121,1822.5,817.259033,7.8615,3e-05,51.742001
122,1837.5,815.775024,7.79,3.1e-05,51.73
123,1852.5,814.29303,7.718,3.2e-05,51.658001
124,1867.5,812.811035,7.646,3.3e-05,51.585999
125,1882.5,811.332031,7.574,3.3e-05,51.417999
126,1897.5,809.856018,7.502,3.2e-05,51.153999
127,1912.5,808.380005,7.43,3.2e-05,50.889999
128,1927.5,806.905518,7.3585,3.1e-05,50.678001
129,1942.5,805.438538,7.2895,3.1e-05,50.726002
130,1957.5,803.971497,7.2205,3.1e-05,50.773998
131,1972.5,802.504517,7.1515,3.1e-05,50.821999
132,1987.5,801.040039,7.095,2.9e-05,50.970001
133,2002.5,799.575989,7.041,2.7e-05,51.138
134,2017.5,798.112,6.987,2.6e-05,51.306
135,2032.5,796.653992,6.9345,2.5e-05,51.414001
136,2047.5,795.201965,6.8835,2.5e-05,51.462002
137,2062.5,793.75,6.8325,2.5e-05,51.509998
138,2077.5,792.29895,6.7815,2.6e-05,51.546001
139,2092.5,790.852966,6.7305,2.6e-05,51.521999
140,2107.5,789.406982,6.6795,2.6e-05,51.498001
141,2122.5,787.960999,6.6285,2.7e-05,51.473999
142,2137.5,786.522461,6.5775,2.7e-05,51.490002
143,2152.5,785.08551,6.5265,2.7e-05,51.514
144,2167.5,783.648499,6.4755,2.8e-05,51.537998
145,2182.5,782.216003,6.4245,2.8e-05,51.562
146,2197.5,780.787964,6.3735,2.9e-05,51.585999
147,2212.5,779.359985,6.3225,3e-05,51.610001
148,2227.5,777.932495,6.2745,3.1e-05,51.605999
149,2242.5,776.507507,6.2415,3.1e-05,51.462002
150,2257.5,775.082458,6.2085,3.2e-05,51.318001
151,2272.5,773.657471,6.1755,3.2e-05,51.174
152,2287.5,772.242493,6.1425,3.2e-05,51.130001
153,2302.5,770.829529,6.1095,3.2e-05,51.105999
154,2317.5,769.416504,6.0765,3.2e-05,51.082001
155,2332.5,768.006531,6.042,3.1e-05,51.046001
156,2347.5,766.599548,6.006,3.1e-05,50.998001
157,2362.5,765.192505,5.97,3e-05,50.950001
158,2377.5,763.787048,5.9345,2.9e-05,50.914001
159,2392.5,762.389038,5.9015,2.9e-05,50.938
160,2407.5,760.991028,5.8685,3e-05,50.962002
161,2422.5,759.593018,5.8355,3e-05,50.986
162,2437.5,758.205017,5.8025,3.1e-05,51.169998
163,2452.5,756.81897,5.7695,3.2e-05,51.386002
164,2467.5,755.432983,5.7365,3.3e-05,51.602001
165,2482.5,754.048462,5.7005,3.3e-05,51.698002
166,2497.5,752.665466,5.6615,3.1e-05,51.674
167,2512.5,751.282471,5.6225,3e-05,51.650002
168,2527.5,749.900513,5.583,2.9e-05,51.625999
169,2542.5,748.523499,5.541,2.9e-05,51.602001
170,2557.5,747.146484,5.499,2.9e-05,51.577999
171,2572.5,745.76947,5.457,2.8e-05,51.554001
172,2587.5,744.402466,5.415,2.8e-05,51.43
173,2602.5,743.037476,5.373,2.7e-05,51.285999
174,2617.5,741.672485,5.331,2.6e-05,51.141998
175,2632.5,740.310486,5.289,2.6e-05,51.009998
176,2647.5,738.951477,5.247,2.5e-05,50.889999
177,2662.5,737.592529,5.205,2.4e-05,50.77
178,2677.5,736.235046,5.163,2.3e-05,50.678001
179,2692.5,734.88501,5.121,2e-05,50.726002
180,2707.5,733.535034,5.079,1.7e-05,50.773998
181,2722.5,732.184998,5.037,1.4e-05,50.821999
182,2737.5,730.837524,4.9875,1.4e-05,50.810001
183,2752.5,729.490479,4.9365,1.4e-05,50.785999
184,2767.5,728.143494,4.8855,1.4e-05,50.762001
185,2782.5,726.800964,4.83,1.4e-05,50.737999
186,2797.5,725.463013,4.77,1.4e-05,50.714001
187,2812.5,724.125,4.71,1.4e-05,50.689999
188,2827.5,722.788513,4.6495,1.4e-05,50.681999
189,2842.5,721.459534,4.5865,1.9e-05,50.754002
190,2857.5,720.130493,4.5235,2.4e-05,50.826
191,2872.5,718.801514,4.4605,2.9e-05,50.897999
192,2887.5,717.477539,4.4,3e-05,50.93
193,2902.5,716.15448,4.34,2.9e-05,50.953999
194,2917.5,714.831482,4.28,2.9e-05,50.978001
195,2932.5,713.514465,4.2185,2.9e-05,50.882
196,2947.5,712.203491,4.1555,3e-05,50.666
197,2962.5,710.892517,4.0925,3e-05,50.450001
198,2977.5,709.58197,4.0305,3e-05,50.290001
199,2992.5,708.273987,3.9735,2.6e-05,50.41
200,3007.5,706.966003,3.9165,2.2e-05,50.529999
201,3022.5,705.65802,3.8595,1.8e-05,50.650002
202,3037.5,704.357483,3.8325,2.1e-05,50.650002
203,3052.5,703.058472,3.8115,2.6e-05,50.625999
204,3067.5,701.75946,3.7905,3.1e-05,50.602001
205,3082.5,700.461975,3.7695,3.3e-05,51.227501
206,3097.5,699.166016,3.7485,3.2e-05,52.502499
207,3112.5,697.869995,3.7275,3.1e-05,53.7775
208,3127.5,696.575989,3.7065,3e-05,55.004002
209,3142.5,695.291992,3.6855,2.9e-05,55.987999
210,3157.5,694.007996,3.6645,2.8e-05,56.972
211,3172.5,692.723999,3.6435,2.7e-05,57.956001
212,3187.5,691.445007,3.62,2.9e-05,58.68
213,3202.5,690.166992,3.596,3.1e-05,59.352001
214,3217.5,688.888977,3.572,3.3e-05,60.023998
215,3232.5,687.615479,3.5495,3.6e-05,60.695999
216,3247.5,686.346497,3.5285,4e-05,61.368
217,3262.5,685.077515,3.5075,4.4e-05,62.040001
218,3277.5,683.809509,3.483,4.8e-05,62.644001
219,3292.5,682.546509,3.441,5.5e-05,62.908001
220,3307.5,681.283508,3.399,6.1e-05,63.172001
221,3322.5,680.020508,3.357,6.7e-05,63.436001
222,3337.5,678.762512,3.3075,7.4e-05,63.32
223,3352.5,677.505493,3.2565,8.3e-05,63.127998
224,3367.5,676.248474,3.2055,9.1e-05,62.936001
225,3382.5,674.995972,3.153,9.7e-05,62.708
226,3397.5,673.747986,3.099,0.000101,62.444
227,3412.5,672.5,3.045,0.000105,62.18
228,3427.5,671.252991,2.991,0.000109,61.967999
229,3442.5,670.011047,2.937,0.000112,62.015999
230,3457.5,668.768982,2.883,0.000115,62.063999
231,3472.5,667.527039,2.829,0.000119,62.112
232,3487.5,666.290039,2.7775,0.000122,62.139999
233,3502.5,665.054016,2.7265,0.000124,62.164001
234,3517.5,663.817993,2.6755,0.000127,62.188
235,3532.5,662.586487,2.6155,0.00013,62.212002
236,3547.5,661.359497,2.5465,0.000132,62.236
237,3562.5,660.132507,2.4775,0.000135,62.259998
238,3577.5,658.906006,2.404,0.000137,62.307999
239,3592.5,657.682007,2.308,0.000139,62.476002
240,3607.5,656.458008,2.212,0.00014,62.644001
241,3622.5,655.234009,2.116,0.000142,62.812
242,3637.5,654.017517,2.02,0.000144,62.82
243,3652.5,652.80249,1.924,0.000146,62.796001
244,3667.5,651.587463,1.828,0.000148,62.771999
245,3682.5,650.375488,1.732,0.000145,62.771999
246,3697.5,649.166504,1.636,0.000138,62.796001
247,3712.5,647.95752,1.54,0.00013,62.82
248,3727.5,646.749512,1.444,0.000121,62.835999
249,3742.5,645.546509,1.348,0.000104,62.812
250,3757.5,644.343506,1.252,8.7e-05,62.787998
251,3772.5,643.140503,1.156,7e-05,62.764
252,3787.5,641.945007,1.0575,6.5e-05,62.740002
253,3802.5,640.751038,0.9585,6.2e-05,62.716
254,3817.5,639.557007,0.8595,5.9e-05,62.692001
255,3832.5,638.363037,0.7605,5.5e-05,62.667999
256,3847.5,637.169006,0.6615,5.2e-05,62.644001
257,3862.5,635.974976,0.5625,4.9e-05,62.619999
258,3877.5,634.781982,0.463,4.6e-05,62.616001
259,3892.5,633.593994,0.361,4.3e-05,62.712002
260,3907.5,632.406006,0.259,4e-05,62.807999
261,3922.5,631.218018,0.157,3.7e-05,62.903999
262,3937.5,630.037537,0.055,3.5e-05,62.34
263,3952.5,628.858521,-0.047,3.3e-05,61.644001
264,3967.5,627.679504,-0.149,3.1e-05,60.948002
265,3982.5,626.505005,-0.2495,3e-05,60.492001
266,3997.5,625.335022,-0.3485,2.9e-05,60.276001
267,4012.5,624.165039,-0.4475,2.9e-05,60.060001
268,4027.5,622.995972,-0.547,2.8e-05,59.703999
269,4042.5,621.83197,-0.649,2.6e-05,58.647999
270,4057.5,620.66803,-0.751,2.5e-05,57.591999
271,4072.5,619.504028,-0.853,2.3e-05,56.535999
272,4087.5,618.340027,-0.9525,2.4e-05,56.34
273,4102.5,617.175964,-1.0515,2.4e-05,56.316002
274,4117.5,616.011963,-1.1505,2.5e-05,56.292
275,4132.5,614.851013,-1.251,2.6e-05,55.8465
276,4147.5,613.692993,-1.353,2.6e-05,54.9795
277,4162.5,612.534973,-1.455,2.7e-05,54.112499
278,4177.5,611.37854,-1.5565,2.7e-05,53.386002
279,4192.5,610.229492,-1.6555,3e-05,53.362
280,4207.5,609.080505,-1.7545,3.1e-05,53.338001
281,4222.5,607.931519,-1.8535,3.4e-05,53.313999
282,4237.5,606.784973,-1.9525,3.4e-05,53.352501
283,4252.5,605.638977,-2.0515,3.3e-05,53.4035
284,4267.5,604.492981,-2.1505,3.3e-05,53.454498
285,4282.5,603.352966,-2.251,3.2e-05,53.492001
286,4297.5,602.218994,-2.353,3.2e-05,53.515999
287,4312.5,601.085022,-2.455,3.1e-05,53.540001
288,4327.5,599.951538,-2.5565,3.1e-05,53.551498
289,4342.5,598.820496,-2.6555,3e-05,53.5005
290,4357.5,597.689514,-2.7545,2.9e-05,53.449501
291,4372.5,596.558472,-2.8535,2.9e-05,53.398499
292,4387.5,595.42749,-2.9525,2.9e-05,53.532501
293,4402.5,594.296509,-3.0515,2.9e-05,53.703499
294,4417.5,593.165466,-3.1505,3e-05,53.8745
295,4432.5,592.039001,-3.2495,3e-05,54.068001
296,4447.5,590.916992,-3.3485,3.1e-05,54.284
297,4462.5,589.794983,-3.4475,3.2e-05,54.5
298,4477.5,588.6745,-3.5465,3.3e-05,54.675999
299,4492.5,587.561523,-3.6455,3.1e-05,54.652
300,4507.5,586.448486,-3.7445,2.9e-05,54.627998
301,4522.5,585.33551,-3.8435,2.7e-05,54.604
302,4537.5,584.225037,-3.945,2.7e-05,54.439999
303,4552.5,583.11499,-4.047,2.6e-05,54.248001
304,4567.5,582.005005,-4.149,2.6e-05,54.056
305,4582.5,580.899536,-4.2495,2.6e-05,53.948002
306,4597.5,579.798523,-4.3485,2.7e-05,53.924
307,4612.5,578.69751,-4.4475,2.8e-05,53.900002
308,4627.5,577.596558,-4.5475,2.9e-05,53.8475
309,4642.5,576.495544,-4.6525,3.3e-05,53.6525
310,4657.5,575.39447,-4.7575,3.6e-05,53.4575
311,4672.5,574.293518,-4.8625,4e-05,53.262501
312,4687.5,573.19751,-4.9675,3.9e-05,53.25
313,4702.5,572.102539,-5.0725,3.8e-05,53.273998
314,4717.5,571.007507,-5.1775,3.6e-05,53.298
315,4732.5,569.916992,-5.2825,3.4e-05,53.335499
316,4747.5,568.830994,-5.3875,3.2e-05,53.386501
317,4762.5,567.745056,-5.4925,3e-05,53.4375
318,4777.5,566.659546,-5.5975,2.9e-05,53.644001
319,4792.5,565.576538,-5.7025,2.9e-05,54.627998
320,4807.5,564.49353,-5.8075,2.9e-05,55.612
321,4822.5,563.410461,-5.9125,3e-05,56.596001
322,4837.5,562.334961,-6.0175,3e-05,56.66
323,4852.5,561.260986,-6.1225,3e-05,56.540001
324,4867.5,560.187012,-6.2275,3.1e-05,56.419998
325,4882.5,559.113037,-6.328,3.1e-05,56.348
326,4897.5,558.039001,-6.424,3.2e-05,56.324001
327,4912.5,556.965027,-6.52,3.2e-05,56.299999
328,4927.5,555.892517,-6.6155,3.2e-05,56.355999
329,4942.5,554.827515,-6.7085,3.2e-05,56.812
330,4957.5,553.762512,-6.8015,3.1e-05,57.268002
331,4972.5,552.69751,-6.8945,3e-05,57.723999
332,4987.5,551.63501,-6.99,3e-05,58.439999
333,5002.5,550.572998,-7.086,3e-05,59.208
334,5017.5,549.510986,-7.182,3.1e-05,59.976002
335,5032.5,548.453491,-7.2765,3.3e-05,60.731998
336,5047.5,547.400452,-7.3695,3.5e-05,61.476002
337,5062.5,546.347473,-7.4625,3.8e-05,62.220001
338,5077.5,545.295471,-7.556,4.1e-05,63.004002
339,5092.5,544.248474,-7.652,4.3e-05,63.987999
340,5107.5,543.201477,-7.748,4.5e-05,64.972
341,5122.5,542.15448,-7.844,4.7e-05,65.956001
342,5137.5,541.109985,-7.9325,5.2e-05,66.459999
343,5152.5,540.065979,-8.0195,5.9e-05,66.867996
344,5167.5,539.021973,-8.1065,6.5e-05,67.276001
345,5182.5,537.981018,-8.192,7e-05,67.407997
346,5197.5,536.942993,-8.276,7.4e-05,67.264
347,5212.5,535.904968,-8.36,7.8e-05,67.120003
348,5227.5,534.867493,-8.444,8.1e-05,66.963997
349,5242.5,533.83252,-8.528,7.9e-05,66.748001
350,5257.5,532.797485,-8.612,7.7e-05,66.531998
351,5272.5,531.762512,-8.696,7.5e-05,66.316002
352,5287.5,530.735046,-8.78,7.4e-05,66.300003
353,5302.5,529.708984,-8.864,7.3e-05,66.323997
354,5317.5,528.682983,-8.948,7.2e-05,66.348
355,5332.5,527.661499,-9.032,7.1e-05,66.311996
356,5347.5,526.64447,-9.116,7.1e-05,66.216003
357,5362.5,525.627502,-9.2,7e-05,66.120003
358,5377.5,524.610535,-9.285,6.9e-05,66.084
359,5392.5,523.593506,-9.375,6.6e-05,66.348
360,5407.5,522.576538,-9.465,6.4e-05,66.612
361,5422.5,521.559509,-9.555,6.1e-05,66.875999
362,5437.5,520.547485,-9.6525,6e-05,66.480003
363,5452.5,519.536499,-9.7515,5.8e-05,65.952003
364,5467.5,518.525513,-9.8505,5.6e-05,65.424004
365,5482.5,517.517517,-9.9495,5.4e-05,64.428001
366,5497.5,516.512512,-10.0485,5.1e-05,62.964001
367,5512.5,515.507507,-10.1475,4.7e-05,61.5
368,5527.5,514.502991,-10.2465,4.4e-05,60.076
369,5542.5,513.500977,-10.3455,4.2e-05,58.852001
370,5557.5,512.498962,-10.4445,3.9e-05,57.627998
371,5572.5,511.496979,-10.5435,3.7e-05,56.403999
372,5587.5,510.505005,-10.645,3.5e-05,55.619999
373,5602.5,509.515015,-10.747,3.4e-05,54.924
374,5617.5,508.524994,-10.849,3.2e-05,54.228001
375,5632.5,507.536499,-10.9495,3e-05,53.662498
376,5647.5,506.5495,-11.0485,2.9e-05,53.227501
377,5662.5,505.5625,-11.1475,2.8e-05,52.7925
378,5677.5,504.575989,-11.2445,2.7e-05,52.433998
379,5692.5,503.59198,-11.3315,2.7e-05,52.458
380,5707.5,502.608002,-11.4185,2.6e-05,52.481998
381,5722.5,501.623993,-11.5055,2.6e-05,52.506001
382,5737.5,500.642487,-11.5875,2.4e-05,52.349998
383,5752.5,499.661499,-11.6685,2.3e-05,52.158001
384,5767.5,498.680511,-11.7495,2.1e-05,51.966
385,5782.5,497.702515,-11.832,2e-05,51.762001
386,5797.5,496.727509,-11.916,2.1e-05,51.546001
387,5812.5,495.752502,-12.0,2.1e-05,51.330002
388,5827.5,494.778992,-12.084,2.2e-05,51.146
389,5842.5,493.812988,-12.168,2.2e-05,51.122002
390,5857.5,492.846985,-12.252,2.3e-05,51.098
391,5872.5,491.881012,-12.336,2.3e-05,51.074001
392,5887.5,490.920013,-12.4175,2.2e-05,51.09
393,5902.5,489.959991,-12.4985,2e-05,51.113998
394,5917.5,489.0,-12.5795,1.8e-05,51.138
395,5932.5,488.041504,-12.6575,1.8e-05,51.125999
396,5947.5,487.084503,-12.7325,1.8e-05,51.077999
397,5962.5,486.127502,-12.8075,1.9e-05,51.029999
398,5977.5,485.17099,-12.878,1.9e-05,50.986
399,5992.5,484.21698,-12.926,1.8e-05,50.962002
400,6007.5,483.263,-12.974,1.7e-05,50.938
401,6022.5,482.30899,-13.022,1.6e-05,50.914001
402,6037.5,481.362488,-13.0725,1.6e-05,50.869999
403,6052.5,480.417511,-13.1235,1.5e-05,50.821999
404,6067.5,479.472504,-13.1745,1.5e-05,50.773998
405,6082.5,478.528992,-13.2255,1.5e-05,50.762001
406,6097.5,477.587006,-13.2765,1.4e-05,50.785999
407,6112.5,476.644989,-13.3275,1.4e-05,50.810001
408,6127.5,475.703979,-13.378,1.4e-05,50.834
409,6142.5,474.767975,-13.426,1.6e-05,50.858002
410,6157.5,473.832001,-13.474,1.8e-05,50.882
411,6172.5,472.895996,-13.522,2e-05,50.905998
412,6187.5,471.967499,-13.5725,2e-05,50.849998
413,6202.5,471.040497,-13.6235,2e-05,50.778
414,6217.5,470.113495,-13.6745,1.9e-05,50.706001
415,6232.5,469.186493,-13.742,2e-05,50.681999
416,6247.5,468.259491,-13.826,2.1e-05,50.706001
417,6262.5,467.332489,-13.91,2.2e-05,50.73
418,6277.5,466.406494,-13.995,2.3e-05,50.754002
419,6292.5,465.485504,-14.085,2.3e-05,50.778
420,6307.5,464.564484,-14.175,2.2e-05,50.801998
421,6322.5,463.643494,-14.265,2.2e-05,50.826
422,6337.5,462.727478,-14.355,2.2e-05,50.77
423,6352.5,461.8125,-14.445,2.2e-05,50.698002
424,6367.5,460.897491,-14.535,2.2e-05,50.625999
425,6382.5,459.985504,-14.625,2.2e-05,50.602001
426,6397.5,459.076508,-14.715,2.2e-05,50.625999
427,6412.5,458.167511,-14.805,2.3e-05,50.650002
428,6427.5,457.259491,-14.895,2.3e-05,50.661999
429,6442.5,456.356506,-14.985,2.3e-05,50.613998
430,6457.5,455.453491,-15.075,2.3e-05,50.566002
431,6472.5,454.550476,-15.165,2.3e-05,50.518002
432,6487.5,453.649994,-15.2625,2.3e-05,50.529999
433,6502.5,452.75,-15.3615,2.4e-05,50.554001
434,6517.5,451.849976,-15.4605,2.4e-05,50.577999
435,6532.5,450.951477,-15.567,2.4e-05,50.625999
436,6547.5,450.054504,-15.681,2.3e-05,50.698002
437,6562.5,449.157501,-15.795,2.1e-05,50.77
438,6577.5,448.261505,-15.9085,2e-05,50.834
439,6592.5,447.370514,-16.019501,1.9e-05,50.858002
440,6607.5,446.479492,-16.130501,1.8e-05,50.882
441,6622.5,445.588501,-16.241501,1.7e-05,50.905998
442,6637.5,444.702515,-16.355,1.6e-05,50.950001
443,6652.5,443.817505,-16.469,1.5e-05,50.998001
444,6667.5,442.932495,-16.583,1.5e-05,51.046001
445,6682.5,442.050476,-16.695499,1.5e-05,51.009998
446,6697.5,441.171478,-16.806499,1.5e-05,50.889999
447,6712.5,440.292511,-16.9175,1.6e-05,50.77
448,6727.5,439.414001,-17.028999,1.6e-05,50.674
449,6742.5,438.537994,-17.143,1.5e-05,50.698002
450,6757.5,437.662018,-17.257,1.5e-05,50.722
451,6772.5,436.786011,-17.371,1.4e-05,50.745998
452,6787.5,435.912506,-17.49,1.3e-05,50.830002
453,6802.5,435.03952,-17.610001,1.3e-05,50.925999
454,6817.5,434.166504,-17.73,1.2e-05,51.021999
455,6832.5,433.295013,-17.8515,1.2e-05,51.057999
456,6847.5,432.424988,-17.974501,1.2e-05,51.034
457,6862.5,431.554993,-18.0975,1.1e-05,51.009998
458,6877.5,430.686005,-18.219999,1.1e-05,50.993999
459,6892.5,429.821991,-18.34,1.1e-05,51.018002
460,6907.5,428.958008,-18.459999,1.1e-05,51.042
461,6922.5,428.094025,-18.58,1.1e-05,51.066002
462,6937.5,427.235016,-18.702499,1e-05,51.09
463,6952.5,426.377014,-18.8255,1e-05,51.113998
464,6967.5,425.519012,-18.9485,1e-05,51.138
465,6982.5,424.664001,-19.07,9e-06,50.633999
466,6997.5,423.812012,-19.190001,8e-06,49.602001
467,7012.5,422.959991,-19.309999,6e-06,48.57
468,7027.5,422.10849,-19.4305,5e-06,47.546001
469,7042.5,421.259491,-19.553499,4e-06,46.562
470,7057.5,420.410522,-19.6765,4e-06,45.577999
471,7072.5,419.561523,-19.7995,3e-06,44.594002
472,7087.5,418.712524,-19.93,2e-06,44.029999
473,7102.5,417.863495,-20.062,2e-06,43.549999
474,7117.5,417.014496,-20.194,2e-06,43.07
475,7132.5,416.168488,-20.324499,1e-06,42.734001
476,7147.5,415.3255,-20.453501,1e-06,42.542
477,7162.5,414.482513,-20.5825,1e-06,42.349998
478,7177.5,413.640503,-20.7115,1e-06,42.146
479,7192.5,412.803497,-20.8405,1e-06,41.882
480,7207.5,411.966492,-20.9695,1e-06,41.618
481,7222.5,411.129486,-21.098499,1e-06,41.354
482,7237.5,410.294983,-21.227501,0.0,41.470001
483,7252.5,409.460999,-21.356501,0.0,41.661999
484,7267.5,408.626984,-21.4855,0.0,41.854
485,7282.5,407.797485,-21.6145,0.0,41.938
486,7297.5,406.972504,-21.7435,0.0,41.914001
487,7312.5,406.147491,-21.872499,0.0,41.889999
488,7327.5,405.322998,-22.000999,0.0,41.834
489,7342.5,404.500977,-22.127001,0.0,41.618
490,7357.5,403.678986,-22.253,0.0,41.402
491,7372.5,402.856995,-22.379,0.0,41.186001
492,7387.5,402.032501,-22.495001,0.0,41.169998
493,7402.5,401.207489,-22.608999,0.0,41.194
494,7417.5,400.382507,-22.723,0.0,41.217999
495,7432.5,399.562012,-22.837,0.0,41.313999
496,7447.5,398.746002,-22.951,0.0,41.481998
497,7462.5,397.929993,-23.065001,0.0,41.650002
498,7477.5,397.114502,-23.179001,0.0,41.834
499,7492.5,396.301514,-23.292999,0.0,42.098
500,7507.5,395.488495,-23.407,0.0,42.362
501,7522.5,394.675507,-23.521,0.0,42.625999
502,7537.5,393.869995,-23.6325,0.0,42.490002
503,7552.5,393.06601,-23.7435,0.0,42.273998
504,7567.5,392.261993,-23.8545,0.0,42.057999
505,7582.5,391.459503,-23.966999,0.0,41.938
506,7597.5,390.658478,-24.080999,0.0,41.914001
507,7612.5,389.857513,-24.195,0.0,41.889999
508,7627.5,389.057007,-24.303499,0.0,41.826
509,7642.5,388.259003,-24.384501,0.0,41.562
510,7657.5,387.460999,-24.4655,0.0,41.298
511,7672.5,386.662994,-24.546499,0.0,41.034
512,7687.5,385.867493,-24.602501,0.0,41.209999
513,7702.5,385.07251,-24.6535,0.0,41.473999
514,7717.5,384.277496,-24.7045,0.0,41.737999
515,7732.5,383.485504,-24.755501,0.0,41.773998
516,7747.5,382.696503,-24.806499,0.0,41.582001
517,7762.5,381.907501,-24.8575,0.0,41.389999
518,7777.5,381.118988,-24.908501,0.0,41.186001
519,7792.5,380.333008,-24.959499,0.0,40.922001
520,7807.5,379.546997,-25.0105,0.0,40.658001
521,7822.5,378.760986,-25.061501,0.0,40.394001
522,7837.5,377.982513,-25.112499,0.0,40.330002
523,7852.5,377.205505,-25.1635,0.0,40.306
524,7867.5,376.428497,-25.2145,0.0,40.282001
525,7882.5,375.653015,-25.265499,0.0,40.546001
526,7897.5,374.878998,-25.3165,0.0,41.098
527,7912.5,374.105011,-25.3675,0.0,41.650002
528,7927.5,373.331482,-25.423,0.0,42.146
529,7942.5,372.560486,-25.500999,0.0,42.362
530,7957.5,371.78949,-25.579,0.0,42.577999
531,7972.5,371.018524,-25.657,0.0,42.793999
532,7987.5,370.252502,-25.7425,0.0,42.610001
533,8002.5,369.487488,-25.8295,0.0,42.346001
534,8017.5,368.722504,-25.9165,0.0,42.082001
535,8032.5,367.959015,-26.002001,0.0,41.962002
536,8047.5,367.196991,-26.086,0.0,41.986
537,8062.5,366.434998,-26.17,0.0,42.009998
538,8077.5,365.673981,-26.254,0.0,41.981998
539,8092.5,364.917999,-26.337999,0.0,41.694
540,8107.5,364.161987,-26.422001,0.0,41.405998
541,8122.5,363.406006,-26.506001,0.0,41.118
542,8137.5,362.652496,-26.59,0.0,41.25
543,8152.5,361.899475,-26.674,0.0,41.466
544,8167.5,361.146484,-26.757999,0.0,41.681999
545,8182.5,360.396484,-26.848,0.0,42.042
546,8197.5,359.649475,-26.944,0.0,42.546001
547,8212.5,358.902496,-27.040001,0.0,43.049999
548,8227.5,358.156006,-27.140499,0.0,43.433998
549,8242.5,357.411987,-27.2635,0.0,43.217999
550,8257.5,356.667999,-27.386499,0.0,43.001999
551,8272.5,355.923981,-27.509501,0.0,42.785999
552,8287.5,355.182495,-27.629999,0.0,42.529999
553,8302.5,354.441498,-27.75,0.0,42.265999
554,8317.5,353.7005,-27.870001,0.0,42.001999
555,8332.5,352.960999,-27.991501,0.0,41.858002
556,8347.5,352.222992,-28.1145,0.0,41.834
557,8362.5,351.484985,-28.237499,0.0,41.810001
558,8377.5,350.748505,-28.3605,0.0,41.785999
559,8392.5,350.019501,-28.4835,0.0,41.762001
560,8407.5,349.290497,-28.606501,0.0,41.737999
561,8422.5,348.561493,-28.7295,0.0,41.714001
562,8437.5,347.834991,-28.85,0.0,41.529999
563,8452.5,347.108978,-28.969999,0.0,41.313999
564,8467.5,346.382996,-29.09,0.0,41.098
565,8482.5,345.656982,-29.2115,0.0,41.110001
566,8497.5,344.931,-29.334499,0.0,41.349998
567,8512.5,344.205017,-29.4575,0.0,41.59
568,8527.5,343.479523,-29.5805,0.0,41.745998
569,8542.5,342.7565,-29.703501,0.0,41.481998
570,8557.5,342.033508,-29.8265,0.0,41.217999
571,8572.5,341.310486,-29.949499,0.0,40.953999
572,8587.5,340.592499,-30.0725,0.0,41.130001
573,8602.5,339.875488,-30.195499,0.0,41.394001
574,8617.5,339.158478,-30.318501,0.0,41.658001
575,8632.5,338.444489,-30.4415,0.0,41.801998
576,8647.5,337.73349,-30.564501,0.0,41.826
577,8662.5,337.022491,-30.6875,0.0,41.849998
578,8677.5,336.311981,-30.810499,0.0,41.866001
579,8692.5,335.604004,-30.9335,0.0,41.841999
580,8707.5,334.895996,-31.056499,0.0,41.818001
581,8722.5,334.188019,-31.179501,0.0,41.793999
582,8737.5,333.482513,-31.3025,0.0,42.029999
583,8752.5,332.777496,-31.425501,0.0,42.318001
584,8767.5,332.07251,-31.5485,0.0,42.605999
585,8782.5,331.367493,-31.67,0.0,42.641998
586,8797.5,330.662506,-31.790001,0.0,42.425999
587,8812.5,329.957489,-31.91,0.0,42.209999
588,8827.5,329.253998,-32.029499,0.0,42.001999
589,8842.5,328.558014,-32.1465,0.0,41.834
590,8857.5,327.862,-32.2635,0.0,41.666
591,8872.5,327.165985,-32.380501,0.0,41.498001
592,8887.5,326.470001,-32.5,0.0,41.689999
593,8902.5,325.773987,-32.619999,0.0,41.953999
594,8917.5,325.078003,-32.740002,0.0,42.217999
595,8932.5,324.386505,-32.860001,0.0,42.338001
596,8947.5,323.699524,-32.98,0.0,42.313999
597,8962.5,323.012512,-33.099998,0.0,42.290001
598,8977.5,322.325989,-33.220001,0.0,42.306
599,8992.5,321.641998,-33.34,0.0,42.521999
600,9007.5,320.958008,-33.459999,0.0,42.737999
601,9022.5,320.273987,-33.580002,0.0,42.953999
602,9037.5,319.589996,-33.702499,0.0,42.77
603,9052.5,318.906006,-33.8255,0.0,42.506001
604,9067.5,318.221985,-33.948502,0.0,42.242001
605,9082.5,317.53949,-34.071499,0.0,42.085999
606,9097.5,316.85849,-34.1945,0.0,42.037998
607,9112.5,316.17749,-34.317501,0.0,41.990002
608,9127.5,315.496979,-34.440498,0.0,41.905998
609,9142.5,314.819,-34.563499,0.0,41.641998
610,9157.5,314.140991,-34.686501,0.0,41.377998
611,9172.5,313.463013,-34.809502,0.0,41.113998
612,9187.5,312.792511,-34.932499,0.0,40.810001
613,9202.5,312.123505,-35.0555,0.0,40.498001
614,9217.5,311.454498,-35.178501,0.0,40.186001
615,9232.5,310.785492,-35.301498,0.0,39.5485
616,9247.5,310.116486,-35.4245,0.0,38.585499
617,9262.5,309.44751,-35.547501,0.0,37.622501
618,9277.5,308.779999,-35.670502,0.0,36.860001
619,9292.5,308.119995,-35.793499,0.0,37.099998
620,9307.5,307.459991,-35.9165,0.0,37.34
621,9322.5,306.799988,-36.039501,0.0,37.580002
622,9337.5,306.137512,-36.165001,0.0,39.022499
623,9352.5,305.474518,-36.291,0.0,40.705502
624,9367.5,304.811523,-36.417,0.0,42.3885
625,9382.5,304.150024,-36.542999,0.0,42.509998
626,9397.5,303.490021,-36.668999,0.0,41.07
627,9412.5,302.829987,-36.794998,0.0,39.630001
628,9427.5,302.17099,-36.921001,0.0,38.734001
629,9442.5,301.516998,-37.047001,0.0,40.557999
630,9457.5,300.863007,-37.173,0.0,42.382
631,9472.5,300.209015,-37.299,0.0,44.206001
632,9487.5,299.559998,-37.424999,0.0,43.889999
633,9502.5,298.911987,-37.550999,0.0,43.146
634,9517.5,298.264008,-37.676998,0.0,42.402
635,9532.5,297.617493,-37.803001,0.0,42.257999
636,9547.5,296.972504,-37.929001,0.0,42.714001
637,9562.5,296.327515,-38.055,0.0,43.169998
638,9577.5,295.683014,-38.181,0.0,43.514
639,9592.5,295.040985,-38.306999,0.0,43.298
640,9607.5,294.398987,-38.432999,0.0,43.082001
641,9622.5,293.756989,-38.558998,0.0,42.866001
642,9637.5,293.117493,-38.68,0.0,42.830002
643,9652.5,292.478485,-38.799999,0.0,42.830002
644,9667.5,291.839478,-38.919998,0.0,42.830002
645,9682.5,291.2005,-39.040001,0.0,42.938
646,9697.5,290.561493,-39.16,0.0,43.153999
647,9712.5,289.922516,-39.279999,0.0,43.369999
648,9727.5,289.284515,-39.399502,0.0,43.506001
649,9742.5,288.65152,-39.516499,0.0,43.242001
650,9757.5,288.018494,-39.633499,0.0,42.978001
651,9772.5,287.385498,-39.7505,0.0,42.714001
652,9787.5,286.757507,-39.869999,0.0,42.4575
653,9802.5,286.130493,-39.990002,0.0,42.202499
654,9817.5,285.50351,-40.110001,0.0,41.947498
655,9832.5,284.877991,-40.23,0.0,41.9505
656,9847.5,284.253998,-40.349998,0.0,42.211498
657,9862.5,283.630005,-40.470001,0.0,42.4725
658,9877.5,283.0065,-40.59,0.0,42.570499
659,9892.5,282.385498,-40.709999,0.0,41.8535
660,9907.5,281.764496,-40.830002,0.0,41.136501
661,9922.5,281.143524,-40.950001,0.0,40.419498
662,9937.5,280.522522,-41.072498,0.0,40.322498
663,9952.5,279.901489,-41.195499,0.0,40.349499
664,9967.5,279.280487,-41.318501,0.0,40.376499
665,9982.5,278.662506,-41.443001,0.0,40.7635
666,9997.5,278.047485,-41.569,0.0,41.510502
667,10012.5,277.432495,-41.695,0.0,42.2575
668,10027.5,276.818024,-41.820499,0.0,42.880001
669,10042.5,276.206024,-41.943501,0.0,42.880001
670,10057.5,275.593994,-42.066502,0.0,42.880001
671,10072.5,274.981995,-42.189499,0.0,42.880001
672,10087.5,274.375,-42.3125,0.0,43.102501
673,10102.5,273.768982,-42.435501,0.0,43.369499
674,10117.5,273.162994,-42.558498,0.0,43.636501
675,10132.5,272.558502,-42.681499,0.0,43.9095
676,10147.5,271.955505,-42.804501,0.0,44.188499
677,10162.5,271.352509,-42.927502,0.0,44.467499
678,10177.5,270.749512,-43.050499,0.0,44.623501
679,10192.5,270.146515,-43.1735,0.0,44.164501
680,10207.5,269.543488,-43.296501,0.0,43.705502
681,10222.5,268.940491,-43.419498,0.0,43.246498
682,10237.5,268.342499,-43.544998,0.0,43.352501
683,10252.5,267.745514,-43.671001,0.0,43.571499
684,10267.5,267.148499,-43.797001,0.0,43.790501
685,10282.5,266.551514,-43.921501,0.0,44.009499
686,10297.5,265.954498,-44.044498,0.0,44.2285
687,10312.5,265.357483,-44.1675,0.0,44.447498
688,10327.5,264.761505,-44.291,0.0,44.5895
689,10342.5,264.170502,-44.417,0.0,44.3465
690,10357.5,263.579498,-44.542999,0.0,44.1035
691,10372.5,262.988495,-44.668999,0.0,43.8605
692,10387.5,262.402496,-44.794998,0.0,43.404999
693,10402.5,261.817505,-44.921001,0.0,42.907001
694,10417.5,261.232513,-45.047001,0.0,42.409
695,10432.5,260.648987,-45.171501,0.0,42.051998
696,10447.5,260.066986,-45.294498,0.0,41.835999
697,10462.5,259.484985,-45.4175,0.0,41.619999
698,10477.5,258.902496,-45.541,0.0,41.476501
699,10492.5,258.317505,-45.667,0.0,41.695499
700,10507.5,257.732483,-45.792999,0.0,41.914501
701,10522.5,257.147491,-45.918999,0.0,42.133499
702,10537.5,256.567505,-46.0425,0.0,41.947498
703,10552.5,255.988495,-46.165501,0.0,41.6805
704,10567.5,255.4095,-46.288502,0.0,41.413502
705,10582.5,254.833496,-46.411499,0.0,41.279999
706,10597.5,254.260498,-46.5345,0.0,41.279999
707,10612.5,253.687515,-46.657501,0.0,41.279999
708,10627.5,253.115005,-46.780499,0.0,41.325001
709,10642.5,252.545013,-46.9035,0.0,41.595001
710,10657.5,251.975006,-47.026501,0.0,41.865002
711,10672.5,251.404999,-47.149502,0.0,42.134998
712,10687.5,250.837494,-47.275002,0.0,42.357498
713,10702.5,250.270493,-47.401001,0.0,42.570499
714,10717.5,249.703506,-47.527,0.0,42.783501
715,10732.5,249.138,-47.651501,0.0,42.755001
716,10747.5,248.574005,-47.774502,0.0,42.485001
717,10762.5,248.009995,-47.897499,0.0,42.215
718,10777.5,247.445984,-48.021,0.0,42.033501
719,10792.5,246.881989,-48.146999,0.0,42.294498
720,10807.5,246.317993,-48.272999,0.0,42.5555
721,10822.5,245.753998,-48.398998,0.0,42.816502
722,10837.5,245.192505,-48.522499,0.0,42.857498
723,10852.5,244.631485,-48.6455,0.0,42.8545
724,10867.5,244.070496,-48.768501,0.0,42.851501
725,10882.5,243.512497,-48.893002,0.0,42.719501
726,10897.5,242.957489,-49.019001,0.0,42.4585
727,10912.5,242.402496,-49.145,0.0,42.197498
728,10927.5,241.848495,-49.2705,0.0,41.943001
729,10942.5,241.2995,-49.393501,0.0,41.721001
730,10957.5,240.750504,-49.516499,0.0,41.499001
731,10972.5,240.201508,-49.6395,0.0,41.277
732,10987.5,239.654999,-49.764999,0.0,41.022499
733,11002.5,239.108994,-49.890999,0.0,40.761501
734,11017.5,238.562988,-50.016998,0.0,40.5005
735,11032.5,238.016983,-50.139999,0.0,40.598
736,11047.5,237.470993,-50.259998,0.0,41.054001
737,11062.5,236.925003,-50.380001,0.0,41.509998
738,11077.5,236.378998,-50.499001,0.0,41.8465
739,11092.5,235.832993,-50.612999,0.0,41.585499
740,11107.5,235.286987,-50.727001,0.0,41.324501
741,11122.5,234.740997,-50.841,0.0,41.063499
742,11137.5,234.199997,-50.9575,0.0,41.022499
743,11152.5,233.660004,-51.074501,0.0,41.025501
744,11167.5,233.12001,-51.191502,0.0,41.0285
745,11182.5,232.583008,-51.308498,0.0,41.640499
746,11197.5,232.049011,-51.425499,0.0,42.8615
747,11212.5,231.515015,-51.5425,0.0,44.0825
748,11227.5,230.981003,-51.659,0.0,45.079498
749,11242.5,230.447006,-51.772999,0.0,44.956501
750,11257.5,229.912994,-51.887001,0.0,44.8335
751,11272.5,229.378983,-52.000999,0.0,44.710499
752,11287.5,228.852493,-52.1175,0.0,45.07
753,11302.5,228.327484,-52.234501,0.0,45.526001
754,11317.5,227.80249,-52.351501,0.0,45.981998
755,11332.5,227.275986,-52.470001,0.0,46.098999
756,11347.5,226.747986,-52.59,0.0,45.876999
757,11362.5,226.220001,-52.709999,0.0,45.654999
758,11377.5,225.692505,-52.830502,0.0,45.514999
759,11392.5,225.167496,-52.953499,0.0,45.785
760,11407.5,224.642502,-53.0765,0.0,46.055
761,11422.5,224.117493,-53.199501,0.0,46.325001
762,11437.5,223.595001,-53.32,0.0,45.912498
763,11452.5,223.072983,-53.439999,0.0,45.363499
764,11467.5,222.550995,-53.560001,0.0,44.814499
765,11482.5,222.031982,-53.68,0.0,44.035999
766,11497.5,221.516006,-53.799999,0.0,43.028
767,11512.5,221.0,-53.919998,0.0,42.02
768,11527.5,220.484512,-54.040501,0.0,41.384998
769,11542.5,219.971512,-54.163502,0.0,42.615002
770,11557.5,219.458496,-54.286499,0.0,43.845001
771,11572.5,218.945496,-54.4095,0.0,45.075001
772,11587.5,218.434998,-54.529999,0.0,44.84
773,11602.5,217.925003,-54.650002,0.0,44.312
774,11617.5,217.414993,-54.77,0.0,43.784
775,11632.5,216.904999,-54.894501,0.0,43.3895
776,11647.5,216.395004,-55.023499,0.0,43.128502
777,11662.5,215.88501,-55.1525,0.0,42.8675
778,11677.5,215.376007,-55.281502,0.0,42.669498
779,11692.5,214.872009,-55.4105,0.0,42.786499
780,11707.5,214.367996,-55.539501,0.0,42.9035
781,11722.5,213.863998,-55.668499,0.0,43.0205
782,11737.5,213.360001,-55.797501,0.0,43.264999
783,11752.5,212.856003,-55.926498,0.0,43.535
784,11767.5,212.352005,-56.0555,0.0,43.805
785,11782.5,211.851013,-56.184502,0.0,43.712002
786,11797.5,211.353012,-56.313499,0.0,43.256001
787,11812.5,210.854996,-56.442501,0.0,42.799999
788,11827.5,210.358002,-56.571499,0.0,42.407501
789,11842.5,209.865997,-56.7005,0.0,42.3325
790,11857.5,209.373993,-56.829498,0.0,42.2575
791,11872.5,208.882004,-56.9585,0.0,42.182499
792,11887.5,208.387497,-57.052502,0.0,42.384998
793,11902.5,207.892487,-57.1395,0.0,42.643002
794,11917.5,207.397491,-57.226501,0.0,42.901001
795,11932.5,206.903992,-57.313499,0.0,42.8755
796,11947.5,206.411987,-57.400501,0.0,42.566502
797,11962.5,205.919983,-57.487499,0.0,42.2575
798,11977.5,205.428986,-57.574501,0.0,41.9235
799,11992.5,204.942993,-57.661499,0.0,41.4645
800,12007.5,204.457001,-57.748501,0.0,41.005501
801,12022.5,203.970993,-57.835499,0.0,40.546501
802,12037.5,203.487503,-57.922501,0.0,40.287498
803,12052.5,203.004501,-58.009499,0.0,40.068501
804,12067.5,202.5215,-58.0965,0.0,39.849499
805,12082.5,202.039993,-58.183498,0.0,39.627499
806,12097.5,201.559998,-58.2705,0.0,39.4025
807,12112.5,201.079987,-58.357498,0.0,39.177502
808,12127.5,200.600494,-58.438499,0.0,39.266998
809,12142.5,200.123489,-58.489498,0.0,40.929001
810,12157.5,199.6465,-58.540501,0.0,42.591
811,12172.5,199.169495,-58.591499,0.0,44.252998
812,12187.5,198.697495,-58.610001,0.0,44.107498
813,12202.5,198.226501,-58.622002,0.0,43.600498
814,12217.5,197.755493,-58.633999,0.0,43.093498
815,12232.5,197.2845,-58.647499,0.0,42.948002
816,12247.5,196.813507,-58.662498,0.0,43.164001
817,12262.5,196.342499,-58.677502,0.0,43.380001
818,12277.5,195.872498,-58.692501,0.0,43.612999
819,12292.5,195.407501,-58.7075,0.0,43.931
820,12307.5,194.94249,-58.7225,0.0,44.249001
821,12322.5,194.477493,-58.737499,0.0,44.567001
822,12337.5,194.012497,-58.752499,0.0,44.842499
823,12352.5,193.547501,-58.767502,0.0,45.109501
824,12367.5,193.082504,-58.782501,0.0,45.376499
825,12382.5,192.620514,-58.797501,0.0,45.283501
826,12397.5,192.161514,-58.8125,0.0,44.830502
827,12412.5,191.702515,-58.827499,0.0,44.377499
828,12427.5,191.244507,-58.830502,0.0,43.956501
829,12442.5,190.791504,-58.773499,0.0,43.695499
830,12457.5,190.338501,-58.716499,0.0,43.434502
831,12472.5,189.885498,-58.6595,0.0,43.1735
832,12487.5,189.434998,-58.59,0.0,43.112499
833,12502.5,188.985001,-58.518002,0.0,43.091499
834,12517.5,188.535004,-58.445999,0.0,43.070499
835,12532.5,188.086502,-58.374001,0.0,43.1665
836,12547.5,187.639496,-58.301998,0.0,43.379501
837,12562.5,187.192505,-58.23,0.0,43.592499
838,12577.5,186.746017,-58.158501,0.0,43.733501
839,12592.5,186.302017,-58.0895,0.0,43.5145
840,12607.5,185.858002,-58.0205,0.0,43.295502
841,12622.5,185.414001,-57.9515,0.0,43.0765
842,12637.5,184.975006,-57.880001,0.0,43.200001
843,12652.5,184.537003,-57.807999,0.0,43.391998
844,12667.5,184.098999,-57.736,0.0,43.584
845,12682.5,183.660995,-57.667,0.0,43.785
846,12697.5,183.223007,-57.601002,0.0,43.994999
847,12712.5,182.785004,-57.535,0.0,44.205002
848,12727.5,182.348007,-57.478001,0.0,44.4165
849,12742.5,181.916,-57.466,0.0,44.635502
850,12757.5,181.483994,-57.453999,0.0,44.8545
851,12772.5,181.052002,-57.442001,0.0,45.073502
852,12787.5,180.625,-57.427502,0.0,45.327499
853,12802.5,180.199005,-57.412498,0.0,45.588501
854,12817.5,179.772995,-57.397499,0.0,45.849499
855,12832.5,179.347,-57.383999,0.0,45.966499
856,12847.5,178.921005,-57.372002,0.0,45.939499
857,12862.5,178.494995,-57.360001,0.0,45.912498
858,12877.5,178.070007,-57.3475,0.0,45.8465
859,12892.5,177.649994,-57.3325,0.0,45.585499
860,12907.5,177.230011,-57.317501,0.0,45.324501
861,12922.5,176.810013,-57.302502,0.0,45.063499
862,12937.5,176.392517,-57.290001,0.0,44.84
863,12952.5,175.97551,-57.278,0.0,44.624001
864,12967.5,175.558517,-57.265999,0.0,44.408001
865,12982.5,175.14151,-57.265999,0.0,44.190498
866,12997.5,174.724503,-57.278,0.0,43.9715
867,13012.5,174.30751,-57.290001,0.0,43.752499
868,13027.5,173.89151,-57.309502,0.0,43.605499
869,13042.5,173.480515,-57.366501,0.0,43.818501
870,13057.5,173.069504,-57.4235,0.0,44.031502
871,13072.5,172.658493,-57.480499,0.0,44.244499
872,13087.5,172.25,-57.537498,0.0,44.302502
873,13102.5,171.841995,-57.594501,0.0,44.329498
874,13117.5,171.434006,-57.651501,0.0,44.356499
875,13132.5,171.027496,-57.707001,0.0,44.25
876,13147.5,170.622498,-57.761002,0.0,44.009998
877,13162.5,170.217499,-57.814999,0.0,43.77
878,13177.5,169.8125,-57.869499,0.0,43.613998
879,13192.5,169.407501,-57.926498,0.0,43.877998
880,13207.5,169.002502,-57.983501,0.0,44.141998
881,13222.5,168.597504,-58.040501,0.0,44.405998
882,13237.5,168.197495,-58.0975,0.0,44.267502
883,13252.5,167.798492,-58.154499,0.0,44.0485
884,13267.5,167.399506,-58.211498,0.0,43.829498
885,13282.5,167.001999,-58.266998,0.0,43.591
886,13297.5,166.606003,-58.320999,0.0,43.333
887,13312.5,166.210007,-58.375,0.0,43.075001
888,13327.5,165.813995,-58.429001,0.0,42.865002
889,13342.5,165.417999,-58.483002,0.0,42.895
890,13357.5,165.022003,-58.536999,0.0,42.924999
891,13372.5,164.626007,-58.591,0.0,42.955002
892,13387.5,164.235001,-58.645,0.0,42.98
893,13402.5,163.844986,-58.699001,0.0,43.004002
894,13417.5,163.454987,-58.752998,0.0,43.028
895,13432.5,163.064987,-58.806999,0.0,42.321499
896,13447.5,162.675003,-58.861,0.0,40.884499
897,13462.5,162.285004,-58.915001,0.0,39.447498
898,13477.5,161.896011,-58.9655,0.0,38.373501
899,13492.5,161.511993,-58.998501,0.0,39.114498
900,13507.5,161.128006,-59.031502,0.0,39.855499
901,13522.5,160.743988,-59.064499,0.0,40.5965
902,13537.5,160.362488,-58.994999,0.0,40.244999
903,13552.5,159.981506,-58.904999,0.0,39.674999
904,13567.5,159.600494,-58.814999,0.0,39.105
905,13582.5,159.220993,-58.724998,0.0,38.700001
906,13597.5,158.843002,-58.634998,0.0,38.459999
907,13612.5,158.464996,-58.544998,0.0,38.220001
908,13627.5,158.08699,-58.455002,0.0,38.056499
909,13642.5,157.708984,-58.365002,0.0,38.275501
910,13657.5,157.330994,-58.275002,0.0,38.494499
911,13672.5,156.953003,-58.185001,0.0,38.713501
912,13687.5,156.580002,-58.0975,0.0,38.5275
913,13702.5,156.207993,-58.010502,0.0,38.260502
914,13717.5,155.835983,-57.9235,0.0,37.9935
915,13732.5,155.465485,-57.845501,0.0,38.3535
916,13747.5,155.096497,-57.776501,0.0,39.3405
917,13762.5,154.727493,-57.7075,0.0,40.327499
918,13777.5,154.358994,-57.646,0.0,41.186001
919,13792.5,153.992996,-57.622002,0.0,41.402
920,13807.5,153.626999,-57.598,0.0,41.618
921,13822.5,153.261002,-57.574001,0.0,41.834
922,13837.5,152.897507,-57.549999,0.0,41.709999
923,13852.5,152.534515,-57.526001,0.0,41.518002
924,13867.5,152.171509,-57.501999,0.0,41.326
925,13882.5,151.811508,-57.478001,0.0,41.242001
926,13897.5,151.454514,-57.453999,0.0,41.265999
927,13912.5,151.097504,-57.43,0.0,41.290001
928,13927.5,150.740494,-57.406502,0.0,41.306
929,13942.5,150.383499,-57.385502,0.0,41.282001
930,13957.5,150.026505,-57.364498,0.0,41.257999
931,13972.5,149.669495,-57.343498,0.0,41.234001
932,13987.5,149.315002,-57.3325,0.0,41.450001
933,14002.5,148.960983,-57.323502,0.0,41.714001
934,14017.5,148.606995,-57.314499,0.0,41.978001
935,14032.5,148.254486,-57.317501,0.0,42.242001
936,14047.5,147.903488,-57.3325,0.0,42.506001
937,14062.5,147.55249,-57.3475,0.0,42.77
938,14077.5,147.201996,-57.362499,0.0,43.026001
939,14092.5,146.854004,-57.377499,0.0,43.242001
940,14107.5,146.505997,-57.392502,0.0,43.458
941,14122.5,146.158005,-57.407501,0.0,43.674
942,14137.5,145.810013,-57.424999,0.0,43.490002
943,14152.5,145.462006,-57.443001,0.0,43.226002
944,14167.5,145.113998,-57.460999,0.0,42.962002
945,14182.5,144.768997,-57.477501,0.0,42.701
946,14197.5,144.427002,-57.4925,0.0,42.443001
947,14212.5,144.085007,-57.5075,0.0,42.185001
948,14227.5,143.7435,-57.5215,0.0,41.912998
949,14242.5,143.404495,-57.530499,0.0,41.570999
950,14257.5,143.065506,-57.539501,0.0,41.229
951,14272.5,142.726501,-57.5485,0.0,40.887001
952,14287.5,142.387497,-57.555,0.0,40.709999
953,14302.5,142.048492,-57.561001,0.0,40.566002
954,14317.5,141.709488,-57.567001,0.0,40.422001
955,14332.5,141.373489,-57.571499,0.0,40.602001
956,14347.5,141.040497,-57.574501,0.0,41.105999
957,14362.5,140.707489,-57.577499,0.0,41.610001
958,14377.5,140.374496,-57.580502,0.0,41.981998
959,14392.5,140.041504,-57.5835,0.0,41.694
960,14407.5,139.708496,-57.586498,0.0,41.405998
961,14422.5,139.375504,-57.5895,0.0,41.118
962,14437.5,139.045013,-57.592499,0.0,41.330002
963,14452.5,138.714996,-57.595501,0.0,41.641998
964,14467.5,138.384995,-57.598499,0.0,41.953999
965,14482.5,138.056503,-57.599998,0.0,41.990002
966,14497.5,137.729507,-57.599998,0.0,41.75
967,14512.5,137.402496,-57.599998,0.0,41.509998
968,14527.5,137.076004,-57.596001,0.0,41.354
969,14542.5,136.751999,-57.571999,0.0,41.618
970,14557.5,136.427994,-57.548,0.0,41.882
971,14572.5,136.104004,-57.523998,0.0,42.146
972,14587.5,135.779999,-57.5,0.0,42.009998
973,14602.5,135.455994,-57.476002,0.0,41.793999
974,14617.5,135.132004,-57.452,0.0,41.577999
975,14632.5,134.811005,-57.429501,0.0,41.554001
976,14647.5,134.492996,-57.408501,0.0,41.722
977,14662.5,134.175003,-57.387501,0.0,41.889999
978,14677.5,133.857498,-57.366001,0.0,41.986
979,14692.5,133.542496,-57.341999,0.0,41.722
980,14707.5,133.227493,-57.318001,0.0,41.458
981,14722.5,132.912506,-57.293999,0.0,41.194
982,14737.5,132.597504,-57.2775,0.0,41.110001
983,14752.5,132.282501,-57.262501,0.0,41.062
984,14767.5,131.967499,-57.247501,0.0,41.014
985,14782.5,131.654007,-57.243,0.0,41.122002
986,14797.5,131.341995,-57.249001,0.0,41.386002
987,14812.5,131.029999,-57.255001,0.0,41.650002
988,14827.5,130.718506,-57.261002,0.0,41.902
989,14842.5,130.4095,-57.266998,0.0,42.094002
990,14857.5,130.10051,-57.272999,0.0,42.285999
991,14872.5,129.791504,-57.278999,0.0,42.478001
992,14887.5,129.485016,-57.287498,0.0,42.330002
993,14902.5,129.179001,-57.296501,0.0,42.113998
994,14917.5,128.873001,-57.3055,0.0,41.897999
995,14932.5,128.567001,-57.313,0.0,41.922001
996,14947.5,128.261002,-57.319,0.0,42.186001
997,14962.5,127.955002,-57.325001,0.0,42.450001
998,14977.5,127.650002,-57.330502,0.0,42.674
999,14992.5,127.349998,-57.3335,0.0,42.698002
1000,15007.5,127.050003,-57.336498,0.0,42.722
1001,15022.5,126.75,-57.3395,0.0,42.745998
1002,15037.5,126.449997,-57.322498,0.0,42.529999
1003,15052.5,126.150002,-57.301498,0.0,42.265999
1004,15067.5,125.849998,-57.280499,0.0,42.001999
1005,15082.5,125.551498,-57.259499,0.0,41.773998
1006,15097.5,125.254501,-57.238499,0.0,41.582001
1007,15112.5,124.957497,-57.217499,0.0,41.389999
1008,15127.5,124.661003,-57.196499,0.0,41.273998
1009,15142.5,124.366997,-57.175499,0.0,41.537998
1010,15157.5,124.072998,-57.154499,0.0,41.801998
1011,15172.5,123.778999,-57.133499,0.0,42.066002
1012,15187.5,123.485001,-57.115002,0.0,42.130001
1013,15202.5,123.191002,-57.097,0.0,42.153999
1014,15217.5,122.897003,-57.078999,0.0,42.178001
1015,15232.5,122.606003,-57.057999,0.0,42.082001
1016,15247.5,122.318001,-57.034,0.0,41.866001
1017,15262.5,122.029999,-57.009998,0.0,41.650002
1018,15277.5,121.741997,-56.983002,0.0,41.501999
1019,15292.5,121.454002,-56.941002,0.0,41.694
1020,15307.5,121.166,-56.898998,0.0,41.886002
1021,15322.5,120.877998,-56.856998,0.0,42.077999
1022,15337.5,120.592499,-56.817501,0.0,42.330002
1023,15352.5,120.307503,-56.7785,0.0,42.594002
1024,15367.5,120.022499,-56.739498,0.0,42.858002
1025,15382.5,119.738998,-56.7005,0.0,42.858002
1026,15397.5,119.457001,-56.661499,0.0,42.594002
1027,15412.5,119.175003,-56.622501,0.0,42.330002
1028,15427.5,118.893501,-56.5835,0.0,42.074001
1029,15442.5,118.614502,-56.544498,0.0,41.858002
1030,15457.5,118.335503,-56.505501,0.0,41.641998
1031,15472.5,118.056503,-56.466499,0.0,41.425999
1032,15487.5,117.777496,-56.435001,0.0,41.150002
1033,15502.5,117.498497,-56.404999,0.0,40.862
1034,15517.5,117.219498,-56.375,0.0,40.574001
1035,15532.5,116.942001,-56.366001,0.0,40.417999
1036,15547.5,116.666,-56.377998,0.0,40.394001
1037,15562.5,116.389999,-56.389999,0.0,40.369999
1038,15577.5,116.114502,-56.4025,0.0,40.354
1039,15592.5,115.841499,-56.4175,0.0,40.377998
1040,15607.5,115.568497,-56.432499,0.0,40.402
1041,15622.5,115.295502,-56.447498,0.0,40.425999
1042,15637.5,115.022499,-56.462502,0.0,40.610001
1043,15652.5,114.749496,-56.477501,0.0,40.826
1044,15667.5,114.476501,-56.4925,0.0,41.042
1045,15682.5,114.206497,-56.506001,0.0,41.257999
1046,15697.5,113.939499,-56.518002,0.0,41.473999
1047,15712.5,113.672501,-56.529999,0.0,41.689999
1048,15727.5,113.405502,-56.5425,0.0,41.834
1049,15742.5,113.138496,-56.557499,0.0,41.618
1050,15757.5,112.871498,-56.572498,0.0,41.402
1051,15772.5,112.6045,-56.587502,0.0,41.186001
1052,15787.5,112.337502,-56.612499,0.0,41.150002
1053,15802.5,112.070503,-56.6395,0.0,41.150002
1054,15817.5,111.803497,-56.6665,0.0,41.150002
1055,15832.5,111.538002,-56.692001,0.0,41.27
1056,15847.5,111.274002,-56.716,0.0,41.509998
1057,15862.5,111.010002,-56.740002,0.0,41.75
1058,15877.5,110.746498,-56.7645,0.0,42.004501
1059,15892.5,110.485497,-56.7915,0.0,42.331501
1060,15907.5,110.224503,-56.818501,0.0,42.658501
1061,15922.5,109.963501,-56.845501,0.0,42.9855
1062,15937.5,109.705002,-56.872501,0.0,43.099998
1063,15952.5,109.446999,-56.899502,0.0,43.172001
1064,15967.5,109.189003,-56.926498,0.0,43.243999
1065,15982.5,108.931,-56.952,0.0,43.0415
1066,15997.5,108.672997,-56.976002,0.0,42.564499
1067,16012.5,108.415001,-57.0,0.0,42.087502
1068,16027.5,108.157501,-57.0135,0.0,41.707001
1069,16042.5,107.902496,-56.974499,0.0,41.808998
1070,16057.5,107.647499,-56.935501,0.0,41.910999
1071,16072.5,107.392502,-56.8965,0.0,42.013
1072,16087.5,107.139999,-56.849998,0.0,42.209999
1073,16102.5,106.888,-56.801998,0.0,42.425999
1074,16117.5,106.636002,-56.754002,0.0,42.641998
1075,16132.5,106.384003,-56.7075,0.0,42.653999
1076,16147.5,106.132004,-56.662498,0.0,42.462002
1077,16162.5,105.879997,-56.6175,0.0,42.27
1078,16177.5,105.628502,-56.572498,0.0,42.066002
1079,16192.5,105.379501,-56.5275,0.0,41.801998
1080,16207.5,105.130501,-56.482498,0.0,41.537998
1081,16222.5,104.8815,-56.4375,0.0,41.273998
1082,16237.5,104.635002,-56.389999,0.0,41.27
1083,16252.5,104.389,-56.341999,0.0,41.318001
1084,16267.5,104.142998,-56.293999,0.0,41.366001
1085,16282.5,103.897003,-56.237,0.0,41.425999
1086,16297.5,103.651001,-56.171001,0.0,41.498001
1087,16312.5,103.404999,-56.105,0.0,41.57
1088,16327.5,103.160004,-56.038502,0.0,41.602001
1089,16342.5,102.919998,-55.969501,0.0,41.433998
1090,16357.5,102.68,-55.900501,0.0,41.265999
1091,16372.5,102.440002,-55.831501,0.0,41.098
1092,16387.5,102.199997,-55.762501,0.0,41.209999
1093,16402.5,101.959999,-55.693501,0.0,41.377998
1094,16417.5,101.720001,-55.6245,0.0,41.546001
1095,16432.5,101.480003,-55.5555,0.0,41.509998
1096,16447.5,101.239998,-55.4865,0.0,41.27
1097,16462.5,101.0,-55.4175,0.0,41.029999
1098,16477.5,100.760498,-55.349499,0.0,40.830002
1099,16492.5,100.523499,-55.286499,0.0,40.830002
1100,16507.5,100.286499,-55.223499,0.0,40.830002
1101,16522.5,100.0495,-55.1605,0.0,40.830002
1102,16537.5,99.815002,-55.165001,0.0,40.830002
1103,16552.5,99.581001,-55.182999,0.0,40.830002
1104,16567.5,99.347,-55.201,0.0,40.830002
1105,16582.5,99.114502,-55.217499,0.0,40.709999
1106,16597.5,98.883499,-55.232498,0.0,40.470001
1107,16612.5,98.652496,-55.247501,0.0,40.23
1108,16627.5,98.421501,-55.262501,0.0,40.150002
1109,16642.5,98.190498,-55.2775,0.0,40.869999
1110,16657.5,97.959503,-55.2925,0.0,41.59
1111,16672.5,97.7285,-55.307499,0.0,42.310001
1112,16687.5,97.5,-55.322498,0.0,41.830002
1113,16702.5,97.272003,-55.337502,0.0,41.110001
1114,16717.5,97.043999,-55.352501,0.0,40.389999
1115,16732.5,96.816002,-55.366001,0.0,40.27
1116,16747.5,96.587997,-55.377998,0.0,40.75
1117,16762.5,96.360001,-55.389999,0.0,41.23
1118,16777.5,96.1325,-55.3965,0.0,41.669998
1119,16792.5,95.907501,-55.3755,0.0,41.91
1120,16807.5,95.682503,-55.3545,0.0,42.150002
1121,16822.5,95.457497,-55.3335,0.0,42.389999
1122,16837.5,95.232498,-55.3125,0.0,42.23
1123,16852.5,95.0075,-55.2915,0.0,41.990002
1124,16867.5,94.782501,-55.2705,0.0,41.75
1125,16882.5,94.560501,-55.250999,0.0,41.509998
1126,16897.5,94.341499,-55.233002,0.0,41.27
1127,16912.5,94.122498,-55.215,0.0,41.029999
1128,16927.5,93.903,-55.196499,0.0,40.830002
1129,16942.5,93.681,-55.175499,0.0,40.830002
1130,16957.5,93.459,-55.154499,0.0,40.830002
1131,16972.5,93.237,-55.133499,0.0,40.830002
1132,16987.5,93.017502,-55.112499,0.0,41.029999
1133,17002.5,92.7985,-55.091499,0.0,41.27
1134,17017.5,92.579498,-55.070499,0.0,41.509998
1135,17032.5,92.362,-55.050999,0.0,41.509998
1136,17047.5,92.146004,-55.033001,0.0,41.27
1137,17062.5,91.93,-55.014999,0.0,41.029999
1138,17077.5,91.7145,-54.997002,0.0,40.869999
1139,17092.5,91.501503,-54.979,0.0,41.110001
1140,17107.5,91.288498,-54.960999,0.0,41.349998
1141,17122.5,91.0755,-54.943001,0.0,41.59
1142,17137.5,90.862503,-54.924999,0.0,41.43
1143,17152.5,90.649498,-54.907001,0.0,41.189999
1144,17167.5,90.436501,-54.889,0.0,40.950001
1145,17182.5,90.224998,-54.870998,0.0,40.830002
1146,17197.5,90.014999,-54.853001,0.0,40.830002
1147,17212.5,89.805,-54.834999,0.0,40.830002
1148,17227.5,89.595001,-54.816502,0.0,40.830002
1149,17242.5,89.385002,-54.795502,0.0,40.830002
1150,17257.5,89.175003,-54.774502,0.0,40.830002
1151,17272.5,88.964996,-54.753502,0.0,40.830002
1152,17287.5,88.7575,-54.7225,0.0,41.029999
1153,17302.5,88.550499,-54.689499,0.0,41.27
1154,17317.5,88.343498,-54.656502,0.0,41.509998
1155,17332.5,88.136497,-54.622002,0.0,41.389999
1156,17347.5,87.929497,-54.585999,0.0,40.91
1157,17362.5,87.722504,-54.549999,0.0,40.43
1158,17377.5,87.515999,-54.514,0.0,40.029999
1159,17392.5,87.311996,-54.478001,0.0,40.029999
1160,17407.5,87.108002,-54.442001,0.0,40.029999
1161,17422.5,86.903999,-54.405998,0.0,40.029999
1162,17437.5,86.699997,-54.369999,0.0,40.029999
1163,17452.5,86.496002,-54.334,0.0,40.029999
1164,17467.5,86.292,-54.298,0.0,40.029999
1165,17482.5,86.0895,-54.262001,0.0,40.029999
1166,17497.5,85.888496,-54.226002,0.0,40.029999
1167,17512.5,85.6875,-54.189999,0.0,40.029999
1168,17527.5,85.487,-54.154999,0.0,40.029999
1169,17542.5,85.289001,-54.125,0.0,40.029999
1170,17557.5,85.091003,-54.095001,0.0,40.029999
1171,17572.5,84.892998,-54.064999,0.0,40.029999
1172,17587.5,84.695,-54.035,0.0,40.029999
1173,17602.5,84.497002,-54.005001,0.0,40.029999
1174,17617.5,84.299004,-53.974998,0.0,40.029999
1175,17632.5,84.102501,-53.945,0.0,40.029999
1176,17647.5,83.907501,-53.915001,0.0,40.029999
1177,17662.5,83.712502,-53.884998,0.0,40.029999
1178,17677.5,83.517502,-53.855499,0.0,40.029999
1179,17692.5,83.322502,-53.828499,0.0,40.029999
1180,17707.5,83.127502,-53.801498,0.0,40.029999
1181,17722.5,82.932503,-53.774502,0.0,40.029999
1182,17737.5,82.739998,-53.744999,0.0,40.029999
1183,17752.5,82.547997,-53.715,0.0,40.029999
1184,17767.5,82.356003,-53.685001,0.0,40.029999
1185,17782.5,82.164001,-53.662498,0.0,40.029999
1186,17797.5,81.972,-53.647499,0.0,40.029999
1187,17812.5,81.779999,-53.6325,0.0,40.029999
1188,17827.5,81.588501,-53.629501,0.0,40.029999
1189,17842.5,81.399498,-53.686501,0.0,40.029999
1190,17857.5,81.210503,-53.7435,0.0,40.029999
1191,17872.5,81.0215,-53.800499,0.0,40.029999
1192,17887.5,80.832497,-53.857498,0.0,40.029999
1193,17902.5,80.643501,-53.914501,0.0,40.029999
1194,17917.5,80.454498,-53.9715,0.0,40.029999
1195,17932.5,80.265503,-54.027,0.0,40.029999
1196,17947.5,80.0765,-54.081001,0.0,40.029999
1197,17962.5,79.887497,-54.134998,0.0,40.029999
1198,17977.5,79.698997,-54.189499,0.0,40.029999
1199,17992.5,79.513,-54.246498,0.0,40.029999
1200,18007.5,79.327003,-54.303501,0.0,40.029999
1201,18022.5,79.140999,-54.3605,0.0,40.029999
1202,18037.5,78.957497,-54.4175,0.0,40.029999
1203,18052.5,78.774498,-54.474499,0.0,40.029999
1204,18067.5,78.591499,-54.531502,0.0,40.029999
1205,18082.5,78.408501,-54.560001,0.0,40.029999
1206,18097.5,78.225502,-54.560001,0.0,40.029999
1207,18112.5,78.042503,-54.560001,0.0,40.029999
1208,18127.5,77.859497,-54.556999,0.0,40.029999
1209,18142.5,77.676498,-54.539001,0.0,40.029999
1210,18157.5,77.4935,-54.521,0.0,40.029999
1211,18172.5,77.310501,-54.502998,0.0,40.029999
1212,18187.5,77.129997,-54.485001,0.0,40.029999
1213,18202.5,76.949997,-54.466999,0.0,40.029999
1214,18217.5,76.769997,-54.449001,0.0,40.029999
1215,18232.5,76.591499,-54.431,0.0,40.029999
1216,18247.5,76.414497,-54.412998,0.0,40.029999
1217,18262.5,76.237503,-54.395,0.0,40.029999
1218,18277.5,76.059998,-54.376499,0.0,40.029999
1219,18292.5,75.879997,-54.355499,0.0,40.029999
1220,18307.5,75.699997,-54.334499,0.0,40.029999
1221,18322.5,75.519997,-54.313499,0.0,40.029999
1222,18337.5,75.345001,-54.297501,0.0,40.029999
1223,18352.5,75.170998,-54.282501,0.0,40.029999
1224,18367.5,74.997002,-54.267502,0.0,40.029999
1225,18382.5,74.822998,-54.258499,0.0,40.029999
1226,18397.5,74.649002,-54.255501,0.0,40.029999
1227,18412.5,74.474998,-54.252499,0.0,40.029999
1228,18427.5,74.301003,-54.249001,0.0,40.029999
1229,18442.5,74.126999,-54.243,0.0,40.029999
1230,18457.5,73.953003,-54.237,0.0,40.029999
1231,18472.5,73.778999,-54.230999,0.0,40.029999
1232,18487.5,73.607498,-54.224998,0.0,40.029999
1233,18502.5,73.436501,-54.219002,0.0,40.029999
1234,18517.5,73.265503,-54.213001,0.0,40.029999
1235,18532.5,73.094498,-54.207001,0.0,40.029999
1236,18547.5,72.9235,-54.201,0.0,40.029999
1237,18562.5,72.752502,-54.195,0.0,40.029999
1238,18577.5,72.581497,-54.188999,0.0,40.029999
1239,18592.5,72.4105,-54.182999,0.0,40.029999
1240,18607.5,72.239502,-54.176998,0.0,40.029999
1241,18622.5,72.068497,-54.171001,0.0,40.029999
1242,18637.5,71.900002,-54.200001,0.0,40.029999
1243,18652.5,71.732002,-54.236,0.0,40.029999
1244,18667.5,71.564003,-54.271999,0.0,40.029999
1245,18682.5,71.397499,-54.307999,0.0,40.029999
1246,18697.5,71.232498,-54.344002,0.0,40.029999
1247,18712.5,71.067497,-54.380001,0.0,40.029999
1248,18727.5,70.902496,-54.416,0.0,40.029999
1249,18742.5,70.737503,-54.452,0.0,40.029999
1250,18757.5,70.572502,-54.487999,0.0,40.029999
1251,18772.5,70.407501,-54.523998,0.0,40.029999
1252,18787.5,70.2425,-54.560001,0.0,40.029999
1253,18802.5,70.077499,-54.596001,0.0,40.029999
1254,18817.5,69.912498,-54.632,0.0,40.029999
1255,18832.5,69.747498,-54.667999,0.0,40.029999
1256,18847.5,69.582497,-54.703999,0.0,40.029999
1257,18862.5,69.417503,-54.740002,0.0,40.029999
1258,18877.5,69.252998,-54.772999,0.0,40.029999
1259,18892.5,69.091003,-54.791,0.0,40.029999
1260,18907.5,68.929001,-54.808998,0.0,40.029999
1261,18922.5,68.766998,-54.827,0.0,40.029999
1262,18937.5,68.607498,-54.842499,0.0,40.029999
1263,18952.5,68.448502,-54.857498,0.0,40.029999
1264,18967.5,68.289497,-54.872501,0.0,40.029999
1265,18982.5,68.130501,-54.886002,0.0,40.029999
1266,18997.5,67.971497,-54.897999,0.0,40.029999
1267,19012.5,67.8125,-54.91,0.0,40.029999
1268,19027.5,67.653503,-54.922501,0.0,40.029999
1269,19042.5,67.494499,-54.9375,0.0,40.029999
1270,19057.5,67.335503,-54.952499,0.0,40.029999
1271,19072.5,67.176498,-54.967499,0.0,40.029999
1272,19087.5,67.019997,-54.982498,0.0,40.029999
1273,19102.5,66.863998,-54.997501,0.0,40.029999
1274,19117.5,66.708,-55.012501,0.0,40.029999
1275,19132.5,66.552002,-55.02,0.0,40.029999
1276,19147.5,66.396004,-55.02,0.0,40.029999
1277,19162.5,66.239998,-55.02,0.0,40.029999
1278,19177.5,66.084,-55.015499,0.0,40.029999
1279,19192.5,65.928001,-54.988499,0.0,40.029999
1280,19207.5,65.772003,-54.961498,0.0,40.029999
1281,19222.5,65.615997,-54.934502,0.0,40.029999
1282,19237.5,65.462502,-54.904999,0.0,40.029999
1283,19252.5,65.309502,-54.875,0.0,40.029999
1284,19267.5,65.156502,-54.845001,0.0,40.029999
1285,19282.5,65.004997,-54.814999,0.0,40.029999
1286,19297.5,64.855003,-54.785,0.0,40.029999
1287,19312.5,64.705002,-54.755001,0.0,40.029999
1288,19327.5,64.554497,-54.725498,0.0,40.029999
1289,19342.5,64.401497,-54.698502,0.0,40.029999
1290,19357.5,64.248497,-54.671501,0.0,40.029999
1291,19372.5,64.095497,-54.644501,0.0,40.029999
1292,19387.5,63.945,-54.615002,0.0,40.029999
1293,19402.5,63.794998,-54.584999,0.0,40.029999
1294,19417.5,63.645,-54.555,0.0,40.029999
1295,19432.5,63.496498,-54.515999,0.0,40.029999
1296,19447.5,63.349499,-54.467999,0.0,40.029999
1297,19462.5,63.202499,-54.419998,0.0,40.029999
1298,19477.5,63.0555,-54.372002,0.0,40.029999
1299,19492.5,62.908501,-54.324001,0.0,40.029999
1300,19507.5,62.761501,-54.276001,0.0,40.029999
1301,19522.5,62.614498,-54.228001,0.0,40.029999
1302,19537.5,62.467499,-54.18,0.0,40.029999
1303,19552.5,62.320499,-54.132,0.0,40.029999
1304,19567.5,62.1735,-54.084,0.0,40.029999
1305,19582.5,62.028,-54.035999,0.0,40.029999
1306,19597.5,61.883999,-53.987999,0.0,40.029999
1307,19612.5,61.740002,-53.939999,0.0,40.029999
1308,19627.5,61.596001,-53.891499,0.0,40.029999
1309,19642.5,61.452,-53.8405,0.0,40.029999
1310,19657.5,61.307999,-53.789501,0.0,40.029999
1311,19672.5,61.164001,-53.738499,0.0,40.029999
1312,19687.5,61.022499,-53.692501,0.0,40.029999
1313,19702.5,60.8815,-53.647499,0.0,40.029999
1314,19717.5,60.740501,-53.602501,0.0,40.029999
1315,19732.5,60.599499,-53.558998,0.0,40.029999
1316,19747.5,60.4585,-53.516998,0.0,40.029999
1317,19762.5,60.317501,-53.474998,0.0,40.029999
1318,19777.5,60.176498,-53.432499,0.0,40.029999
1319,19792.5,60.0355,-53.387501,0.0,40.029999
1320,19807.5,59.894501,-53.342499,0.0,40.029999
1321,19822.5,59.753502,-53.297501,0.0,40.029999
1322,19837.5,59.615002,-53.255001,0.0,40.029999
1323,19852.5,59.477001,-53.213001,0.0,40.029999
1324,19867.5,59.339001,-53.171001,0.0,40.029999
1325,19882.5,59.201,-53.127499,0.0,40.029999
1326,19897.5,59.063,-53.0825,0.0,40.029999
1327,19912.5,58.924999,-53.037498,0.0,40.029999
1328,19927.5,58.787498,-52.993,0.0,40.029999
1329,19942.5,58.6525,-52.951,0.0,40.029999
1330,19957.5,58.517502,-52.909,0.0,40.029999
1331,19972.5,58.3825,-52.867001,0.0,40.029999
1332,19987.5,58.247501,-52.855,0.0,40.029999
1333,20002.5,58.112499,-52.848999,0.0,40.029999
1334,20017.5,57.977501,-52.842999,0.0,40.029999
1335,20032.5,57.842499,-52.8535,0.0,40.029999
1336,20047.5,57.7075,-52.880501,0.0,40.029999
1337,20062.5,57.572498,-52.907501,0.0,40.029999
1338,20077.5,57.438,-52.935001,0.0,40.029999
1339,20092.5,57.306,-52.965,0.0,40.029999
1340,20107.5,57.174,-52.994999,0.0,40.029999
1341,20122.5,57.042,-53.025002,0.0,40.029999
1342,20137.5,56.91,-53.052502,0.0,40.029999
1343,20152.5,56.778,-53.079498,0.0,40.029999
1344,20167.5,56.646,-53.106499,0.0,40.029999
1345,20182.5,56.514,-53.133499,0.0,40.029999
1346,20197.5,56.382,-53.1605,0.0,40.029999
1347,20212.5,56.25,-53.1875,0.0,40.029999
1348,20227.5,56.1185,-53.215,0.0,40.029999
1349,20242.5,55.989498,-53.244999,0.0,40.029999
1350,20257.5,55.8605,-53.275002,0.0,40.029999
1351,20272.5,55.731499,-53.305,0.0,40.029999
1352,20287.5,55.599998,-53.299999,0.0,40.029999
1353,20302.5,55.467999,-53.287998,0.0,40.029999
1354,20317.5,55.335999,-53.276001,0.0,40.029999
1355,20332.5,55.207001,-53.247501,0.0,40.029999
1356,20347.5,55.081001,-53.202499,0.0,40.029999
1357,20362.5,54.955002,-53.157501,0.0,40.029999
1358,20377.5,54.828499,-53.112,0.0,40.029999
1359,20392.5,54.699501,-53.063999,0.0,40.029999
1360,20407.5,54.570499,-53.015999,0.0,40.029999
1361,20422.5,54.441502,-52.967999,0.0,40.029999
1362,20437.5,54.314999,-52.922501,0.0,40.029999
1363,20452.5,54.188999,-52.877499,0.0,40.029999
1364,20467.5,54.063,-52.8325,0.0,40.029999
1365,20482.5,53.938499,-52.785999,0.0,40.029999
1366,20497.5,53.815498,-52.737999,0.0,40.029999
1367,20512.5,53.692501,-52.689999,0.0,40.029999
1368,20527.5,53.569,-52.642502,0.0,40.029999
1369,20542.5,53.443001,-52.5975,0.0,40.029999
1370,20557.5,53.317001,-52.552502,0.0,40.029999
1371,20572.5,53.191002,-52.5075,0.0,40.029999
1372,20587.5,53.067501,-52.4725,0.0,40.029999
1373,20602.5,52.9445,-52.439499,0.0,40.029999
1374,20617.5,52.821499,-52.406502,0.0,40.029999
1375,20632.5,52.700001,-52.373501,0.0,40.029999
1376,20647.5,52.580002,-52.3405,0.0,40.029999
1377,20662.5,52.459999,-52.307499,0.0,40.029999
1378,20677.5,52.3395,-52.273998,0.0,40.029999
1379,20692.5,52.216499,-52.237999,0.0,40.029999
1380,20707.5,52.093498,-52.202,0.0,40.029999
1381,20722.5,51.970501,-52.166,0.0,40.029999
1382,20737.5,51.849998,-52.1325,0.0,40.029999
1383,20752.5,51.73,-52.099499,0.0,40.029999
1384,20767.5,51.610001,-52.066502,0.0,40.029999
1385,20782.5,51.491501,-52.033501,0.0,40.029999
1386,20797.5,51.3745,-52.0005,0.0,40.029999
1387,20812.5,51.2575,-51.967499,0.0,40.029999
1388,20827.5,51.139999,-51.935001,0.0,40.029999
1389,20842.5,51.02,-51.904999,0.0,40.029999
1390,20857.5,50.900002,-51.875,0.0,40.029999
1391,20872.5,50.779999,-51.845001,0.0,40.029999
1392,20887.5,50.662498,-51.817501,0.0,40.029999
1393,20902.5,50.545502,-51.790501,0.0,40.029999
1394,20917.5,50.428501,-51.7635,0.0,40.029999
1395,20932.5,50.313,-51.7365,0.0,40.029999
1396,20947.5,50.199001,-51.709499,0.0,40.029999
1397,20962.5,50.084999,-51.682499,0.0,40.029999
1398,20977.5,49.970501,-51.655499,0.0,40.029999
1399,20992.5,49.8535,-51.628502,0.0,40.029999
1400,21007.5,49.7365,-51.601501,0.0,40.029999
1401,21022.5,49.619499,-51.574501,0.0,40.029999
1402,21037.5,49.505001,-51.547501,0.0,40.029999
1403,21052.5,49.390999,-51.5205,0.0,40.029999
1404,21067.5,49.277,-51.4935,0.0,40.029999
1405,21082.5,49.164501,-51.467999,0.0,40.029999
1406,21097.5,49.053501,-51.444,0.0,40.029999
1407,21112.5,48.942501,-51.419998,0.0,40.029999
1408,21127.5,48.831001,-51.402,0.0,40.029999
1409,21142.5,48.716999,-51.414001,0.0,40.029999
1410,21157.5,48.603001,-51.425999,0.0,40.029999
1411,21172.5,48.488998,-51.438,0.0,40.029999
1412,21187.5,48.377499,-51.455002,0.0,40.029999
1413,21202.5,48.266499,-51.473,0.0,40.029999
1414,21217.5,48.155499,-51.491001,0.0,40.029999
1415,21232.5,48.044498,-51.5075,0.0,40.029999
1416,21247.5,47.933498,-51.522499,0.0,40.029999
1417,21262.5,47.822498,-51.537498,0.0,40.029999
1418,21277.5,47.711498,-51.553001,0.0,40.029999
1419,21292.5,47.600498,-51.570999,0.0,40.029999
1420,21307.5,47.489498,-51.589001,0.0,40.029999
1421,21322.5,47.378502,-51.606998,0.0,40.029999
1422,21337.5,47.27,-51.622501,0.0,40.029999
1423,21352.5,47.161999,-51.637501,0.0,40.029999
1424,21367.5,47.054001,-51.6525,0.0,40.029999
1425,21382.5,46.945999,-51.668999,0.0,40.029999
1426,21397.5,46.838001,-51.687,0.0,40.029999
1427,21412.5,46.73,-51.705002,0.0,40.029999
1428,21427.5,46.622002,-51.7215,0.0,40.029999
1429,21442.5,46.514,-51.730499,0.0,40.029999
1430,21457.5,46.405998,-51.739498,0.0,40.029999
1431,21472.5,46.298,-51.748501,0.0,40.029999
1432,21487.5,46.189999,-51.7575,0.0,40.029999
1433,21502.5,46.082001,-51.766499,0.0,40.029999
1434,21517.5,45.973999,-51.775501,0.0,40.029999
1435,21532.5,45.8675,-51.7845,0.0,40.029999
1436,21547.5,45.762501,-51.793499,0.0,40.029999
1437,21562.5,45.657501,-51.802502,0.0,40.029999
1438,21577.5,45.552502,-51.811501,0.0,40.029999
1439,21592.5,45.447498,-51.820499,0.0,40.029999
1440,21607.5,45.342499,-51.829498,0.0,40.029999
1441,21622.5,45.237499,-51.838501,0.0,40.029999
1442,21637.5,45.1325,-51.8475,0.0,40.029999
1443,21652.5,45.0275,-51.856499,0.0,40.029999
1444,21667.5,44.922501,-51.865501,0.0,40.029999
1445,21682.5,44.819,-51.873001,0.0,40.029999
1446,21697.5,44.716999,-51.879002,0.0,40.029999
1447,21712.5,44.615002,-51.884998,0.0,40.029999
1448,21727.5,44.513,-51.8895,0.0,40.029999
1449,21742.5,44.410999,-51.886501,0.0,40.029999
1450,21757.5,44.308998,-51.883499,0.0,40.029999
1451,21772.5,44.207001,-51.880501,0.0,40.029999
1452,21787.5,44.105,-51.877499,0.0,40.029999
1453,21802.5,44.002998,-51.8745,0.0,40.029999
1454,21817.5,43.901001,-51.871498,0.0,40.029999
1455,21832.5,43.799,-51.8685,0.0,40.029999
1456,21847.5,43.696999,-51.865501,0.0,40.029999
1457,21862.5,43.595001,-51.862499,0.0,40.029999
1458,21877.5,43.4935,-51.859501,0.0,40.029999
1459,21892.5,43.394501,-51.856499,0.0,40.029999
1460,21907.5,43.295502,-51.8535,0.0,40.029999
1461,21922.5,43.196499,-51.850498,0.0,40.029999
1462,21937.5,43.095001,-51.8475,0.0,40.029999
1463,21952.5,42.993,-51.844501,0.0,40.029999
1464,21967.5,42.890999,-51.841499,0.0,40.029999
1465,21982.5,42.792,-51.837002,0.0,40.029999
1466,21997.5,42.695999,-51.831001,0.0,40.029999
1467,22012.5,42.599998,-51.825001,0.0,40.029999
1468,22027.5,42.503502,-51.819,0.0,40.029999
1469,22042.5,42.404499,-51.813,0.0,40.029999
1470,22057.5,42.3055,-51.806999,0.0,40.029999
1471,22072.5,42.206501,-51.800999,0.0,40.029999
1472,22087.5,42.107498,-51.794998,0.0,40.029999
1473,22102.5,42.008499,-51.789001,0.0,40.029999
1474,22117.5,41.9095,-51.783001,0.0,40.029999
1475,22132.5,41.812,-51.777,0.0,40.029999
1476,22147.5,41.716,-51.771,0.0,40.029999
1477,22162.5,41.619999,-51.764999,0.0,40.029999
1478,22177.5,41.523998,-51.758999,0.0,40.029999
1479,22192.5,41.428001,-51.752998,0.0,40.029999
1480,22207.5,41.332001,-51.747002,0.0,40.029999
1481,22222.5,41.236,-51.741001,0.0,40.029999
1482,22237.5,41.142502,-51.735001,0.0,40.029999
1483,22252.5,41.0495,-51.729,0.0,40.029999
1484,22267.5,40.956501,-51.723,0.0,40.029999
1485,22282.5,40.862,-51.720001,0.0,40.029999
1486,22297.5,40.765999,-51.720001,0.0,40.029999
1487,22312.5,40.669998,-51.720001,0.0,40.029999
1488,22327.5,40.574501,-51.722,0.0,40.029999
1489,22342.5,40.481499,-51.734001,0.0,40.029999
1490,22357.5,40.3885,-51.745998,0.0,40.029999
1491,22372.5,40.295502,-51.757999,0.0,40.029999
1492,22387.5,40.202499,-51.767502,0.0,40.029999
1493,22402.5,40.109501,-51.776501,0.0,40.029999
1494,22417.5,40.016499,-51.7855,0.0,40.029999
1495,22432.5,39.9235,-51.794498,0.0,40.029999
1496,22447.5,39.830502,-51.803501,0.0,40.029999
1497,22462.5,39.737499,-51.8125,0.0,40.029999
1498,22477.5,39.645,-51.821999,0.0,40.029999
1499,22492.5,39.555,-51.834,0.0,40.029999
1500,22507.5,39.465,-51.846001,0.0,40.029999
1501,22522.5,39.375,-51.858002,0.0,40.029999
1502,22537.5,39.285,-51.8675,0.0,40.029999
1503,22552.5,39.195,-51.876499,0.0,40.029999
1504,22567.5,39.105,-51.885502,0.0,40.029999
1505,22582.5,39.014999,-51.887001,0.0,40.029999
1506,22597.5,38.924999,-51.881001,0.0,40.029999
1507,22612.5,38.834999,-51.875,0.0,40.029999
1508,22627.5,38.744999,-51.866501,0.0,40.029999
1509,22642.5,38.654999,-51.845501,0.0,40.029999
1510,22657.5,38.564999,-51.824501,0.0,40.029999
1511,22672.5,38.474998,-51.803501,0.0,40.029999
1512,22687.5,38.384998,-51.779999,0.0,40.029999
1513,22702.5,38.294998,-51.756001,0.0,40.029999
1514,22717.5,38.205002,-51.731998,0.0,40.029999
1515,22732.5,38.116501,-51.708,0.0,40.029999
1516,22747.5,38.029499,-51.683998,0.0,40.029999
1517,22762.5,37.942501,-51.66,0.0,40.029999
1518,22777.5,37.855499,-51.636501,0.0,40.029999
1519,22792.5,37.768501,-51.615501,0.0,40.029999
1520,22807.5,37.681499,-51.594501,0.0,40.029999
1521,22822.5,37.594501,-51.573502,0.0,40.029999
1522,22837.5,37.5075,-51.549999,0.0,40.029999
1523,22852.5,37.420502,-51.526001,0.0,40.029999
1524,22867.5,37.3335,-51.501999,0.0,40.029999
1525,22882.5,37.248001,-51.4795,0.0,40.029999
1526,22897.5,37.164001,-51.4585,0.0,40.029999
1527,22912.5,37.080002,-51.4375,0.0,40.029999
1528,22927.5,36.995499,-51.417,0.0,40.029999
1529,22942.5,36.908501,-51.398998,0.0,40.029999
1530,22957.5,36.821499,-51.381001,0.0,40.029999
1531,22972.5,36.734501,-51.362999,0.0,40.029999
1532,22987.5,36.650002,-51.345001,0.0,40.029999
1533,23002.5,36.566002,-51.327,0.0,40.029999
1534,23017.5,36.481998,-51.308998,0.0,40.029999
1535,23032.5,36.397999,-51.291,0.0,40.029999
1536,23047.5,36.313999,-51.272999,0.0,40.029999
1537,23062.5,36.23,-51.255001,0.0,40.029999
1538,23077.5,36.146,-51.237,0.0,40.029999
1539,23092.5,36.062,-51.219002,0.0,40.029999
1540,23107.5,35.978001,-51.201,0.0,40.029999
1541,23122.5,35.894001,-51.182999,0.0,40.029999
1542,23137.5,35.8125,-51.165001,0.0,40.029999
1543,23152.5,35.731499,-51.146999,0.0,40.029999
1544,23167.5,35.650501,-51.129002,0.0,40.029999
1545,23182.5,35.5695,-51.105,0.0,40.029999
1546,23197.5,35.488499,-51.075001,0.0,40.029999
1547,23212.5,35.407501,-51.044998,0.0,40.029999
1548,23227.5,35.3265,-51.0135,0.0,40.029999
1549,23242.5,35.245499,-50.974499,0.0,40.029999
1550,23257.5,35.164501,-50.935501,0.0,40.029999
1551,23272.5,35.0835,-50.8965,0.0,40.029999
1552,23287.5,35.002499,-50.860001,0.0,40.029999
1553,23302.5,34.921501,-50.824001,0.0,40.029999
1554,23317.5,34.8405,-50.787998,0.0,40.029999
1555,23332.5,34.759499,-50.7505,0.0,40.029999
1556,23347.5,34.678501,-50.711498,0.0,40.029999
1557,23362.5,34.5975,-50.672501,0.0,40.029999
1558,23377.5,34.516998,-50.633499,0.0,40.029999
1559,23392.5,34.438999,-50.594501,0.0,40.029999
1560,23407.5,34.361,-50.5555,0.0,40.029999
1561,23422.5,34.283001,-50.516499,0.0,40.029999
1562,23437.5,34.205002,-50.477501,0.0,40.029999
1563,23452.5,34.126999,-50.438499,0.0,40.029999
1564,23467.5,34.049,-50.399502,0.0,40.029999
1565,23482.5,33.971001,-50.3545,0.0,40.029999
1566,23497.5,33.893002,-50.303501,0.0,40.029999
1567,23512.5,33.814999,-50.252499,0.0,40.029999
1568,23527.5,33.737,-50.200001,0.0,40.029999
1569,23542.5,33.659,-50.139999,0.0,40.029999
1570,23557.5,33.581001,-50.080002,0.0,40.029999
1571,23572.5,33.502998,-50.02,0.0,40.029999
1572,23587.5,33.424999,-49.959999,0.0,40.029999
1573,23602.5,33.347,-49.900002,0.0,40.029999
1574,23617.5,33.269001,-49.84,0.0,40.029999
1575,23632.5,33.192501,-49.779999,0.0,40.029999
1576,23647.5,33.1175,-49.720001,0.0,40.029999
1577,23662.5,33.0425,-49.66,0.0,40.029999
1578,23677.5,32.967499,-49.599998,0.0,40.029999
1579,23692.5,32.892502,-49.540001,0.0,40.029999
1580,23707.5,32.817501,-49.48,0.0,40.029999
1581,23722.5,32.7425,-49.419998,0.0,40.029999
1582,23737.5,32.6675,-49.360001,0.0,40.029999
1583,23752.5,32.592499,-49.299999,0.0,40.029999
1584,23767.5,32.517502,-49.240002,0.0,40.029999
1585,23782.5,32.442501,-49.190498,0.0,40.029999
1586,23797.5,32.3675,-49.151501,0.0,40.029999
1587,23812.5,32.2925,-49.112499,0.0,40.029999
1588,23827.5,32.217999,-49.074501,0.0,40.029999
1589,23842.5,32.146,-49.0415,0.0,40.029999
1590,23857.5,32.074001,-49.008499,0.0,40.029999
1591,23872.5,32.001999,-48.975498,0.0,40.029999
1592,23887.5,31.93,-48.942501,0.0,40.029999
1593,23902.5,31.858,-48.9095,0.0,40.029999
1594,23917.5,31.785999,-48.876499,0.0,40.029999
1595,23932.5,31.714001,-48.843498,0.0,40.029999
1596,23947.5,31.642,-48.810501,0.0,40.029999
1597,23962.5,31.57,-48.7775,0.0,40.029999
1598,23977.5,31.497999,-48.744499,0.0,40.029999
1599,23992.5,31.426001,-48.711498,0.0,40.029999
1600,24007.5,31.354,-48.678501,0.0,40.029999
1601,24022.5,31.282,-48.6455,0.0,40.029999
1602,24037.5,31.209999,-48.612499,0.0,40.029999
1603,24052.5,31.138,-48.579498,0.0,40.029999
1604,24067.5,31.066,-48.546501,0.0,40.029999
1605,24082.5,30.995501,-48.523998,0.0,40.029999
1606,24097.5,30.9265,-48.512001,0.0,40.029999
1607,24112.5,30.8575,-48.5,0.0,40.029999
1608,24127.5,30.788,-48.4925,0.0,40.029999
1609,24142.5,30.716,-48.5075,0.0,40.029999
1610,24157.5,30.643999,-48.522499,0.0,40.029999
1611,24172.5,30.572001,-48.537498,0.0,40.029999
1612,24187.5,30.502501,-48.552502,0.0,40.029999
1613,24202.5,30.4335,-48.567501,0.0,40.029999
1614,24217.5,30.3645,-48.5825,0.0,40.029999
1615,24232.5,30.2955,-48.5975,0.0,40.029999
1616,24247.5,30.2265,-48.612499,0.0,40.029999
1617,24262.5,30.157499,-48.627499,0.0,40.029999
1618,24277.5,30.088499,-48.643002,0.0,40.029999
1619,24292.5,30.019501,-48.660999,0.0,40.029999
1620,24307.5,29.9505,-48.679001,0.0,40.029999
1621,24322.5,29.8815,-48.696999,0.0,40.029999
1622,24337.5,29.815001,-48.712502,0.0,40.029999
1623,24352.5,29.749001,-48.727501,0.0,40.029999
1624,24367.5,29.683001,-48.7425,0.0,40.029999
1625,24382.5,29.615499,-48.743999,0.0,40.029999
1626,24397.5,29.546499,-48.731998,0.0,40.029999
1627,24412.5,29.477501,-48.720001,0.0,40.029999
1628,24427.5,29.409,-48.704498,0.0,40.029999
1629,24442.5,29.343,-48.671501,0.0,40.029999
1630,24457.5,29.277,-48.6385,0.0,40.029999
1631,24472.5,29.211,-48.605499,0.0,40.029999
1632,24487.5,29.145,-48.57,0.0,40.029999
1633,24502.5,29.079,-48.534,0.0,40.029999
1634,24517.5,29.013,-48.498001,0.0,40.029999
1635,24532.5,28.947001,-48.463501,0.0,40.029999
1636,24547.5,28.881001,-48.4305,0.0,40.029999
1637,24562.5,28.815001,-48.397499,0.0,40.029999
1638,24577.5,28.749001,-48.363998,0.0,40.029999
1639,24592.5,28.683001,-48.327999,0.0,40.029999
1640,24607.5,28.617001,-48.292,0.0,40.029999
1641,24622.5,28.551001,-48.256001,0.0,40.029999
1642,24637.5,28.487499,-48.2225,0.0,40.029999
1643,24652.5,28.4245,-48.189499,0.0,40.029999
1644,24667.5,28.3615,-48.156502,0.0,40.029999
1645,24682.5,28.297001,-48.122002,0.0,40.029999
1646,24697.5,28.231001,-48.085999,0.0,40.029999
1647,24712.5,28.165001,-48.049999,0.0,40.029999
1648,24727.5,28.099501,-48.014,0.0,40.029999
1649,24742.5,28.036501,-47.978001,0.0,40.029999
1650,24757.5,27.973499,-47.942001,0.0,40.029999
1651,24772.5,27.9105,-47.905998,0.0,40.029999
1652,24787.5,27.8475,-47.869999,0.0,40.029999
1653,24802.5,27.7845,-47.834,0.0,40.029999
1654,24817.5,27.7215,-47.798,0.0,40.029999
1655,24832.5,27.658501,-47.762001,0.0,40.029999
1656,24847.5,27.595501,-47.726002,0.0,40.029999
1657,24862.5,27.532499,-47.689999,0.0,40.029999
1658,24877.5,27.4695,-47.6535,0.0,40.029999
1659,24892.5,27.4065,-47.614498,0.0,40.029999
1660,24907.5,27.3435,-47.5755,0.0,40.029999
1661,24922.5,27.2805,-47.536499,0.0,40.029999
1662,24937.5,27.219999,-47.5,0.0,40.029999
1663,24952.5,27.16,-47.464001,0.0,40.029999
1664,24967.5,27.1,-47.428001,0.0,40.029999
1665,24982.5,27.0385,-47.393501,0.0,40.029999
1666,24997.5,26.9755,-47.3605,0.0,40.029999
1667,25012.5,26.9125,-47.327499,0.0,40.029999
1668,25027.5,26.85,-47.294998,0.0,40.029999
1669,25042.5,26.790001,-47.264999,0.0,40.029999
1670,25057.5,26.73,-47.235001,0.0,40.029999
1671,25072.5,26.67,-47.205002,0.0,40.029999
1672,25087.5,26.610001,-47.174999,0.0,40.029999
1673,25102.5,26.549999,-47.145,0.0,40.029999
1674,25117.5,26.49,-47.115002,0.0,40.029999
1675,25132.5,26.43,-47.084999,0.0,40.029999
1676,25147.5,26.370001,-47.055,0.0,40.029999
1677,25162.5,26.309999,-47.025002,0.0,40.029999
1678,25177.5,26.25,-46.994999,0.0,40.029999
1679,25192.5,26.190001,-46.965,0.0,40.029999
1680,25207.5,26.129999,-46.935001,0.0,40.029999
1681,25222.5,26.07,-46.904999,0.0,40.029999
1682,25237.5,26.012501,-46.875,0.0,40.029999
1683,25252.5,25.9555,-46.845001,0.0,40.029999
1684,25267.5,25.8985,-46.814999,0.0,40.029999
1685,25282.5,25.84,-46.780499,0.0,40.029999
1686,25297.5,25.780001,-46.741501,0.0,40.029999
1687,25312.5,25.719999,-46.702499,0.0,40.029999
1688,25327.5,25.6605,-46.661499,0.0,40.029999
1689,25342.5,25.6035,-46.6105,0.0,40.029999
1690,25357.5,25.546499,-46.559502,0.0,40.029999
1691,25372.5,25.4895,-46.508499,0.0,40.029999
1692,25387.5,25.432501,-46.455002,0.0,40.029999
1693,25402.5,25.3755,-46.401001,0.0,40.029999
1694,25417.5,25.318501,-46.347,0.0,40.029999
1695,25432.5,25.261499,-46.294498,0.0,40.029999
1696,25447.5,25.2045,-46.2435,0.0,40.029999
1697,25462.5,25.147499,-46.192501,0.0,40.029999
1698,25477.5,25.0905,-46.141499,0.0,40.029999
1699,25492.5,25.033501,-46.0905,0.0,40.029999
1700,25507.5,24.9765,-46.039501,0.0,40.029999
1701,25522.5,24.9195,-45.988499,0.0,40.029999
1702,25537.5,24.865,-45.9375,0.0,40.029999
1703,25552.5,24.811001,-45.886501,0.0,40.029999
1704,25567.5,24.757,-45.835499,0.0,40.029999
1705,25582.5,24.7015,-45.790501,0.0,40.029999
1706,25597.5,24.644501,-45.751499,0.0,40.029999
1707,25612.5,24.5875,-45.712502,0.0,40.029999
1708,25627.5,24.531,-45.677502,0.0,40.029999
1709,25642.5,24.476999,-45.662498,0.0,40.029999
1710,25657.5,24.423,-45.647499,0.0,40.029999
1711,25672.5,24.368999,-45.6325,0.0,40.029999
1712,25687.5,24.3125,-45.619999,0.0,40.029999
1713,25702.5,24.255501,-45.608002,0.0,40.029999
1714,25717.5,24.1985,-45.596001,0.0,40.029999
1715,25732.5,24.143,-45.584,0.0,40.029999
1716,25747.5,24.089001,-45.571999,0.0,40.029999
1717,25762.5,24.035,-45.560001,0.0,40.029999
1718,25777.5,23.981001,-45.548,0.0,40.029999
1719,25792.5,23.927,-45.535999,0.0,40.029999
1720,25807.5,23.872999,-45.523998,0.0,40.029999
1721,25822.5,23.819,-45.512001,0.0,40.029999
1722,25837.5,23.7675,-45.5,0.0,40.029999
1723,25852.5,23.716499,-45.487999,0.0,40.029999
1724,25867.5,23.665501,-45.476002,0.0,40.029999
1725,25882.5,23.613001,-45.460999,0.0,40.029999
1726,25897.5,23.559,-45.443001,0.0,40.029999
1727,25912.5,23.504999,-45.424999,0.0,40.029999
1728,25927.5,23.4515,-45.4035,0.0,40.029999
1729,25942.5,23.400499,-45.364498,0.0,40.029999
1730,25957.5,23.349501,-45.3255,0.0,40.029999
1731,25972.5,23.2985,-45.286499,0.0,40.029999
1732,25987.5,23.245001,-45.244999,0.0,40.029999
1733,26002.5,23.191,-45.202999,0.0,40.029999
1734,26017.5,23.136999,-45.160999,0.0,40.029999
1735,26032.5,23.084499,-45.118999,0.0,40.029999
1736,26047.5,23.033501,-45.077,0.0,40.029999
1737,26062.5,22.9825,-45.035,0.0,40.029999
1738,26077.5,22.931499,-44.9935,0.0,40.029999
1739,26092.5,22.880501,-44.954498,0.0,40.029999
1740,26107.5,22.8295,-44.915501,0.0,40.029999
1741,26122.5,22.7785,-44.876499,0.0,40.029999
1742,26137.5,22.727501,-44.834999,0.0,40.029999
1743,26152.5,22.6765,-44.792999,0.0,40.029999
1744,26167.5,22.6255,-44.750999,0.0,40.029999
1745,26182.5,22.574499,-44.709,0.0,40.029999
1746,26197.5,22.5235,-44.667,0.0,40.029999
1747,26212.5,22.4725,-44.625,0.0,40.029999
1748,26227.5,22.421499,-44.588001,0.0,40.029999
1749,26242.5,22.370501,-44.576,0.0,40.029999
1750,26257.5,22.3195,-44.563999,0.0,40.029999
1751,26272.5,22.268499,-44.551998,0.0,40.029999
1752,26287.5,22.219999,-44.544998,0.0,40.029999
1753,26302.5,22.172001,-44.539001,0.0,40.029999
1754,26317.5,22.124001,-44.533001,0.0,40.029999
1755,26332.5,22.074499,-44.527,0.0,40.029999
1756,26347.5,22.0235,-44.521,0.0,40.029999
1757,26362.5,21.9725,-44.514999,0.0,40.029999
1758,26377.5,21.922001,-44.509499,0.0,40.029999
1759,26392.5,21.874001,-44.5065,0.0,40.029999
1760,26407.5,21.826,-44.503502,0.0,40.029999
1761,26422.5,21.778,-44.5005,0.0,40.029999
1762,26437.5,21.73,-44.494999,0.0,40.029999
1763,26452.5,21.681999,-44.488998,0.0,40.029999
1764,26467.5,21.634001,-44.483002,0.0,40.029999
1765,26482.5,21.586,-44.477001,0.0,40.029999
1766,26497.5,21.538,-44.471001,0.0,40.029999
1767,26512.5,21.49,-44.465,0.0,40.029999
1768,26527.5,21.441999,-44.460499,0.0,40.029999
1769,26542.5,21.393999,-44.463501,0.0,40.029999
1770,26557.5,21.346001,-44.466499,0.0,40.029999
1771,26572.5,21.298,-44.469501,0.0,40.029999
1772,26587.5,21.25,-44.48,0.0,40.029999
1773,26602.5,21.202,-44.492001,0.0,40.029999
1774,26617.5,21.153999,-44.504002,0.0,40.029999
1775,26632.5,21.106001,-44.5145,0.0,40.029999
1776,26647.5,21.058001,-44.523499,0.0,40.029999
1777,26662.5,21.01,-44.532501,0.0,40.029999
1778,26677.5,20.9625,-44.542,0.0,40.029999
1779,26692.5,20.9175,-44.554001,0.0,40.029999
1780,26707.5,20.872499,-44.566002,0.0,40.029999
1781,26722.5,20.827499,-44.577999,0.0,40.029999
1782,26737.5,20.780001,-44.587502,0.0,40.029999
1783,26752.5,20.732,-44.5965,0.0,40.029999
1784,26767.5,20.684,-44.605499,0.0,40.029999
1785,26782.5,20.637501,-44.616001,0.0,40.029999
1786,26797.5,20.592501,-44.627998,0.0,40.029999
1787,26812.5,20.547501,-44.639999,0.0,40.029999
1788,26827.5,20.502001,-44.649502,0.0,40.029999
1789,26842.5,20.454,-44.6465,0.0,40.029999
1790,26857.5,20.406,-44.643501,0.0,40.029999
1791,26872.5,20.358,-44.640499,0.0,40.029999
1792,26887.5,20.3125,-44.612499,0.0,40.029999
1793,26902.5,20.2675,-44.579498,0.0,40.029999
1794,26917.5,20.2225,-44.546501,0.0,40.029999
1795,26932.5,20.1775,-44.5135,0.0,40.029999
1796,26947.5,20.1325,-44.480499,0.0,40.029999
1797,26962.5,20.0875,-44.447498,0.0,40.029999
1798,26977.5,20.0425,-44.415001,0.0,40.029999
1799,26992.5,19.997499,-44.384998,0.0,40.029999
1800,27007.5,19.952499,-44.355,0.0,40.029999
1801,27022.5,19.907499,-44.325001,0.0,40.029999
1802,27037.5,19.865,-44.2925,0.0,40.029999
1803,27052.5,19.823,-44.259499,0.0,40.029999
1804,27067.5,19.781,-44.226501,0.0,40.029999
1805,27082.5,19.737499,-44.193501,0.0,40.029999
1806,27097.5,19.692499,-44.1605,0.0,40.029999
1807,27112.5,19.647499,-44.127499,0.0,40.029999
1808,27127.5,19.602501,-44.095001,0.0,40.029999
1809,27142.5,19.557501,-44.064999,0.0,40.029999
1810,27157.5,19.512501,-44.035,0.0,40.029999
1811,27172.5,19.467501,-44.005001,0.0,40.029999
1812,27187.5,19.424999,-43.974998,0.0,40.029999
1813,27202.5,19.382999,-43.945,0.0,40.029999
1814,27217.5,19.341,-43.915001,0.0,40.029999
1815,27232.5,19.299,-43.888,0.0,40.029999
1816,27247.5,19.257,-43.863998,0.0,40.029999
1817,27262.5,19.215,-43.84,0.0,40.029999
1818,27277.5,19.172501,-43.815498,0.0,40.029999
1819,27292.5,19.127501,-43.788502,0.0,40.029999
1820,27307.5,19.0825,-43.761501,0.0,40.029999
1821,27322.5,19.0375,-43.734501,0.0,40.029999
1822,27337.5,18.995001,-43.7075,0.0,40.029999
1823,27352.5,18.952999,-43.6805,0.0,40.029999
1824,27367.5,18.910999,-43.6535,0.0,40.029999
1825,27382.5,18.868999,-43.627998,0.0,40.029999
1826,27397.5,18.827,-43.604,0.0,40.029999
1827,27412.5,18.785,-43.580002,0.0,40.029999
1828,27427.5,18.743,-43.5555,0.0,40.029999
1829,27442.5,18.701,-43.5285,0.0,40.029999
1830,27457.5,18.659,-43.501499,0.0,40.029999
1831,27472.5,18.617001,-43.474499,0.0,40.029999
1832,27487.5,18.577499,-43.450001,0.0,40.029999
1833,27502.5,18.5385,-43.425999,0.0,40.029999
1834,27517.5,18.4995,-43.402,0.0,40.029999
1835,27532.5,18.459,-43.3825,0.0,40.029999
1836,27547.5,18.417,-43.3675,0.0,40.029999
1837,27562.5,18.375,-43.352501,0.0,40.029999
1838,27577.5,18.333,-43.337002,0.0,40.029999
1839,27592.5,18.291,-43.319,0.0,40.029999
1840,27607.5,18.249001,-43.300999,0.0,40.029999
1841,27622.5,18.207001,-43.283001,0.0,40.029999
1842,27637.5,18.1675,-43.267502,0.0,40.029999
1843,27652.5,18.1285,-43.252499,0.0,40.029999
1844,27667.5,18.0895,-43.237499,0.0,40.029999
1845,27682.5,18.049,-43.2225,0.0,40.029999
1846,27697.5,18.007,-43.2075,0.0,40.029999
1847,27712.5,17.965,-43.192501,0.0,40.029999
1848,27727.5,17.9235,-43.176998,0.0,40.029999
1849,27742.5,17.884501,-43.159,0.0,40.029999
1850,27757.5,17.845501,-43.140999,0.0,40.029999
1851,27772.5,17.806499,-43.123001,0.0,40.029999
1852,27787.5,17.7675,-43.107498,0.0,40.029999
1853,27802.5,17.7285,-43.092499,0.0,40.029999
1854,27817.5,17.689501,-43.077499,0.0,40.029999
1855,27832.5,17.650499,-43.0625,0.0,40.029999
1856,27847.5,17.6115,-43.047501,0.0,40.029999
1857,27862.5,17.5725,-43.032501,0.0,40.029999
1858,27877.5,17.533501,-43.017502,0.0,40.029999
1859,27892.5,17.494499,-43.002499,0.0,40.029999
1860,27907.5,17.4555,-42.987499,0.0,40.029999
1861,27922.5,17.4165,-42.9725,0.0,40.029999
1862,27937.5,17.377501,-42.9575,0.0,40.029999
1863,27952.5,17.338499,-42.942501,0.0,40.029999
1864,27967.5,17.2995,-42.927502,0.0,40.029999
1865,27982.5,17.2605,-42.912498,0.0,40.029999
1866,27997.5,17.2215,-42.897499,0.0,40.029999
1867,28012.5,17.182501,-42.8825,0.0,40.029999
1868,28027.5,17.143999,-42.868,0.0,40.029999
1869,28042.5,17.108,-42.855999,0.0,40.029999
1870,28057.5,17.072001,-42.844002,0.0,40.029999
1871,28072.5,17.035999,-42.832001,0.0,40.029999
1872,28087.5,16.997499,-42.817501,0.0,40.029999
1873,28102.5,16.9585,-42.802502,0.0,40.029999
1874,28117.5,16.9195,-42.787498,0.0,40.029999
1875,28132.5,16.882,-42.772499,0.0,40.029999
1876,28147.5,16.846001,-42.7575,0.0,40.029999
1877,28162.5,16.809999,-42.7425,0.0,40.029999
1878,28177.5,16.7735,-42.730999,0.0,40.029999
1879,28192.5,16.734501,-42.737,0.0,40.029999
1880,28207.5,16.695499,-42.743,0.0,40.029999
1881,28222.5,16.6565,-42.749001,0.0,40.029999
1882,28237.5,16.620001,-42.752499,0.0,40.029999
1883,28252.5,16.584,-42.755501,0.0,40.029999
1884,28267.5,16.548,-42.758499,0.0,40.029999
1885,28282.5,16.511999,-42.763,0.0,40.029999
1886,28297.5,16.476,-42.769001,0.0,40.029999
1887,28312.5,16.440001,-42.775002,0.0,40.029999
1888,28327.5,16.403999,-42.780499,0.0,40.029999
1889,28342.5,16.368,-42.783501,0.0,40.029999
1890,28357.5,16.332001,-42.786499,0.0,40.029999
1891,28372.5,16.296,-42.789501,0.0,40.029999
1892,28387.5,16.26,-42.794998,0.0,40.029999
1893,28402.5,16.224001,-42.800999,0.0,40.029999
1894,28417.5,16.188,-42.806999,0.0,40.029999
1895,28432.5,16.152,-42.811501,0.0,40.029999
1896,28447.5,16.115999,-42.814499,0.0,40.029999
1897,28462.5,16.08,-42.817501,0.0,40.029999
1898,28477.5,16.044001,-42.817001,0.0,40.029999
1899,28492.5,16.007999,-42.799,0.0,40.029999
1900,28507.5,15.972,-42.780998,0.0,40.029999
1901,28522.5,15.936,-42.763,0.0,40.029999
1902,28537.5,15.9,-42.73,0.0,40.029999
1903,28552.5,15.864,-42.694,0.0,40.029999
1904,28567.5,15.828,-42.658001,0.0,40.029999
1905,28582.5,15.792,-42.622002,0.0,40.029999
1906,28597.5,15.756,-42.585999,0.0,40.029999
1907,28612.5,15.72,-42.549999,0.0,40.029999
1908,28627.5,15.6845,-42.514,0.0,40.029999
1909,28642.5,15.6515,-42.478001,0.0,40.029999
1910,28657.5,15.6185,-42.442001,0.0,40.029999
1911,28672.5,15.5855,-42.405998,0.0,40.029999
1912,28687.5,15.55,-42.369999,0.0,40.029999
1913,28702.5,15.514,-42.334,0.0,40.029999
1914,28717.5,15.478,-42.298,0.0,40.029999
1915,28732.5,15.4435,-42.2635,0.0,40.029999
1916,28747.5,15.4105,-42.230499,0.0,40.029999
1917,28762.5,15.3775,-42.197498,0.0,40.029999
1918,28777.5,15.3445,-42.164001,0.0,40.029999
1919,28792.5,15.3115,-42.127998,0.0,40.029999
1920,28807.5,15.2785,-42.091999,0.0,40.029999
1921,28822.5,15.2455,-42.056,0.0,40.029999
1922,28837.5,15.21,-42.060001,0.0,40.029999
1923,28852.5,15.174,-42.071999,0.0,40.029999
1924,28867.5,15.138,-42.084,0.0,40.029999
1925,28882.5,15.1035,-42.098999,0.0,40.029999
1926,28897.5,15.0705,-42.117001,0.0,40.029999
1927,28912.5,15.0375,-42.134998,0.0,40.029999
1928,28927.5,15.0045,-42.1535,0.0,40.029999
1929,28942.5,14.9715,-42.1745,0.0,40.029999
1930,28957.5,14.9385,-42.195499,0.0,40.029999
1931,28972.5,14.9055,-42.216499,0.0,40.029999
1932,28987.5,14.8725,-42.235001,0.0,40.029999
1933,29002.5,14.8395,-42.252998,0.0,40.029999
1934,29017.5,14.8065,-42.271,0.0,40.029999
1935,29032.5,14.7735,-42.290501,0.0,40.029999
1936,29047.5,14.7405,-42.311501,0.0,40.029999
1937,29062.5,14.7075,-42.3325,0.0,40.029999
1938,29077.5,14.675,-42.353001,0.0,40.029999
1939,29092.5,14.645,-42.370998,0.0,40.029999
1940,29107.5,14.615,-42.389,0.0,40.029999
1941,29122.5,14.585,-42.407001,0.0,40.029999
1942,29137.5,14.5525,-42.427502,0.0,40.029999
1943,29152.5,14.5195,-42.448502,0.0,40.029999
1944,29167.5,14.4865,-42.469501,0.0,40.029999
1945,29182.5,14.4535,-42.486,0.0,40.029999
1946,29197.5,14.4205,-42.498001,0.0,40.029999
1947,29212.5,14.3875,-42.509998,0.0,40.029999
1948,29227.5,14.355,-42.522499,0.0,40.029999
1949,29242.5,14.325,-42.537498,0.0,40.029999
1950,29257.5,14.295,-42.552502,0.0,40.029999
1951,29272.5,14.265,-42.567501,0.0,40.029999
1952,29287.5,14.2325,-42.5825,0.0,40.029999
1953,29302.5,14.1995,-42.5975,0.0,40.029999
1954,29317.5,14.1665,-42.612499,0.0,40.029999
1955,29332.5,14.135,-42.627499,0.0,40.029999
1956,29347.5,14.105,-42.642502,0.0,40.029999
1957,29362.5,14.075,-42.657501,0.0,40.029999
1958,29377.5,14.0445,-42.672501,0.0,40.029999
1959,29392.5,14.0115,-42.6875,0.0,40.029999
1960,29407.5,13.9785,-42.702499,0.0,40.029999
1961,29422.5,13.9455,-42.717499,0.0,40.029999
1962,29437.5,13.915,-42.732498,0.0,40.029999
1963,29452.5,13.885,-42.747501,0.0,40.029999
1964,29467.5,13.855,-42.762501,0.0,40.029999
1965,29482.5,13.825,-42.7775,0.0,40.029999
1966,29497.5,13.795,-42.7925,0.0,40.029999
1967,29512.5,13.765,-42.807499,0.0,40.029999
1968,29527.5,13.735,-42.818001,0.0,40.029999
1969,29542.5,13.705,-42.806,0.0,40.029999
1970,29557.5,13.675,-42.793999,0.0,40.029999
1971,29572.5,13.645,-42.782001,0.0,40.029999
1972,29587.5,13.615,-42.762501,0.0,40.029999
1973,29602.5,13.585,-42.741501,0.0,40.029999
1974,29617.5,13.555,-42.720501,0.0,40.029999
1975,29632.5,13.525,-42.701,0.0,40.029999
1976,29647.5,13.495,-42.682999,0.0,40.029999
1977,29662.5,13.465,-42.665001,0.0,40.029999
1978,29677.5,13.435,-42.6465,0.0,40.029999
1979,29692.5,13.405,-42.6255,0.0,40.029999
1980,29707.5,13.375,-42.6045,0.0,40.029999
1981,29722.5,13.345,-42.5835,0.0,40.029999
1982,29737.5,13.315,-42.564999,0.0,40.029999
1983,29752.5,13.285,-42.547001,0.0,40.029999
1984,29767.5,13.255,-42.528999,0.0,40.029999
1985,29782.5,13.225,-42.511002,0.0,40.029999
1986,29797.5,13.195,-42.493,0.0,40.029999
1987,29812.5,13.165,-42.474998,0.0,40.029999
1988,29827.5,13.135,-42.456501,0.0,40.029999
1989,29842.5,13.105,-42.435501,0.0,40.029999
1990,29857.5,13.075,-42.414501,0.0,40.029999
1991,29872.5,13.045,-42.393501,0.0,40.029999
1992,29887.5,13.0175,-42.369999,0.0,40.029999
1993,29902.5,12.9905,-42.346001,0.0,40.029999
1994,29917.5,12.9635,-42.321999,0.0,40.029999
1995,29932.5,12.935,-42.298,0.0,40.029999
1996,29947.5,12.905,-42.273998,0.0,40.029999
1997,29962.5,12.875,-42.25,0.0,40.029999
1998,29977.5,12.845,-42.226002,0.0,40.029999
