,Altitude,Pressure,Temperature
0,7.5,100944.2993,287.59299999999996
1,22.5,100897.699,287.599
2,37.5,100851.3,287.60499999999996
3,52.5,100804.6997,287.611
4,67.5,100758.3008,287.61699999999996
5,82.5,100645.8984,287.62899999999996
6,97.5,100467.7002,287.647
7,112.5,100289.50200000001,287.66499999999996
8,127.5,100111.49900000001,287.683
9,142.5,99934.4971,287.70099999999996
10,157.5,99757.5012,287.719
11,172.5,99580.4993,287.73699999999997
12,187.5,99404.4983,287.755
13,202.5,99228.6987,287.77299999999997
14,217.5,99052.8992,287.791
15,232.5,98877.3987,287.80899999999997
16,247.5,98702.1973,287.827
17,262.5,98527.00200000001,287.84499999999997
18,277.5,98352.00200000001,287.85299999999995
19,292.5,98178.0029,287.811
20,307.5,98003.9978,287.769
21,322.5,97829.9988,287.727
22,337.5,97656.7505,287.66249999999997
23,352.5,97483.6487,287.59349999999995
24,367.5,97310.553,287.5245
25,382.5,97137.9028,287.457
26,397.5,96965.6982,287.39099999999996
27,412.5,96793.49979999999,287.325
28,427.5,96621.4478,287.25899999999996
29,442.5,96450.1526,287.193
30,457.5,96278.8513,287.12699999999995
31,472.5,96107.55,287.061
32,487.5,95937.24979999999,286.995
33,502.5,95767.15090000001,286.929
34,517.5,95597.052,286.863
35,532.5,95427.0996,286.7955
36,547.5,95257.2998,286.7265
37,562.5,95087.5,286.65749999999997
38,577.5,94917.90160000001,286.58849999999995
39,592.5,94749.2981,286.5195
40,607.5,94580.7007,286.4505
41,622.5,94412.0972,286.38149999999996
42,637.5,94244.2505,286.315
43,652.5,94076.5503,286.24899999999997
44,667.5,93908.8501,286.183
45,682.5,93741.6016,286.1155
46,697.5,93574.7986,286.0465
47,712.5,93408.0017,285.97749999999996
48,727.5,93241.30249999999,285.907
49,742.5,93075.0977,285.82899999999995
50,757.5,92908.8989,285.751
51,772.5,92742.7002,285.673
52,787.5,92577.00200000001,285.5825
53,802.5,92411.4014,285.48949999999996
54,817.5,92245.8008,285.3965
55,832.5,92080.79830000001,285.30199999999996
56,847.5,91916.4001,285.20599999999996
57,862.5,91752.00200000001,285.10999999999996
58,877.5,91587.7014,285.0145
59,892.5,91423.9014,284.9215
60,907.5,91260.1013,284.82849999999996
61,922.5,91096.3013,284.7355
62,937.5,90933.5022,284.6425
63,952.5,90770.8984,284.54949999999997
64,967.5,90608.3008,284.4565
65,982.5,90446.0022,284.368
66,997.5,90284.0027,284.284
67,1012.5,90121.9971,284.2
68,1027.5,89960.05249999999,284.11699999999996
69,1042.5,89798.3521,284.039
70,1057.5,89636.65160000001,283.96099999999996
71,1072.5,89474.9512,283.883
72,1087.5,89314.2517,283.80499999999995
73,1102.5,89153.7476,283.727
74,1117.5,88993.2495,283.649
75,1132.5,88833.197,283.57099999999997
76,1147.5,88673.6023,283.493
77,1162.5,88514.0015,283.41499999999996
78,1177.5,88354.5471,283.337
79,1192.5,88195.8496,283.25899999999996
80,1207.5,88037.1521,283.181
81,1222.5,87878.4485,283.10299999999995
82,1237.5,87720.0012,283.03
83,1252.5,87561.60280000001,282.95799999999997
84,1267.5,87403.1982,282.88599999999997
85,1282.5,87245.2515,282.81399999999996
86,1297.5,87087.75020000001,282.74199999999996
87,1312.5,86930.24900000001,282.66999999999996
88,1327.5,86772.9004,282.59799999999996
89,1342.5,86616.30249999999,282.52599999999995
90,1357.5,86459.6985,282.45399999999995
91,1372.5,86303.1006,282.38199999999995
92,1387.5,86147.2473,282.31
93,1402.5,85991.5527,282.238
94,1417.5,85835.8521,282.166
95,1432.5,85680.603,282.094
96,1447.5,85525.7996,282.022
97,1462.5,85371.0022,281.95
98,1477.5,85216.30249999999,281.8845
99,1492.5,85062.0972,281.8515
100,1507.5,84907.8979,281.8185
101,1522.5,84753.6987,281.78549999999996
102,1537.5,84600.0,281.76
103,1552.5,84446.3989,281.736
104,1567.5,84292.7979,281.712
105,1582.5,84139.801,281.688
106,1597.5,83987.4023,281.664
107,1612.5,83834.9976,281.64
108,1627.5,83682.7026,281.616
109,1642.5,83530.9021,281.592
110,1657.5,83379.1016,281.568
111,1672.5,83227.301,281.544
112,1687.5,83076.5015,281.52
113,1702.5,82925.89719999999,281.496
114,1717.5,82775.29909999999,281.472
115,1732.5,82624.8474,281.4255
116,1747.5,82474.54830000001,281.3565
117,1762.5,82324.2493,281.28749999999997
118,1777.5,82174.10280000001,281.21849999999995
119,1792.5,82024.70090000001,281.1495
120,1807.5,81875.29909999999,281.0805
121,1822.5,81725.89719999999,281.01149999999996
122,1837.5,81577.5024,280.94
123,1852.5,81429.303,280.868
124,1867.5,81281.0974,280.796
125,1882.5,81133.197,280.724
126,1897.5,80985.60179999999,280.652
127,1912.5,80838.0005,280.58
128,1927.5,80690.5518,280.50849999999997
129,1942.5,80543.8477,280.43949999999995
130,1957.5,80397.1497,280.3705
131,1972.5,80250.45169999999,280.3015
132,1987.5,80103.9978,280.245
133,2002.5,79957.59890000001,280.191
134,2017.5,79811.2,280.137
135,2032.5,79665.3992,280.0845
136,2047.5,79520.2026,280.0335
137,2062.5,79375.0,279.98249999999996
138,2077.5,79229.90109999999,279.93149999999997
139,2092.5,79085.3027,279.8805
140,2107.5,78940.6982,279.8295
141,2122.5,78796.0999,279.77849999999995
142,2137.5,78652.2522,279.72749999999996
143,2152.5,78508.551,279.6765
144,2167.5,78364.8499,279.6255
145,2182.5,78221.6003,279.5745
146,2197.5,78078.80249999999,279.52349999999996
147,2212.5,77935.9985,279.47249999999997
148,2227.5,77793.2495,279.42449999999997
149,2242.5,77650.7507,279.39149999999995
150,2257.5,77508.25200000001,279.3585
151,2272.5,77365.7471,279.3255
152,2287.5,77224.2493,279.29249999999996
153,2302.5,77082.9529,279.2595
154,2317.5,76941.6504,279.2265
155,2332.5,76800.647,279.19199999999995
156,2347.5,76659.9487,279.15599999999995
157,2362.5,76519.2505,279.12
158,2377.5,76378.6987,279.0845
159,2392.5,76238.8977,279.0515
160,2407.5,76099.10280000001,279.01849999999996
161,2422.5,75959.3018,278.9855
162,2437.5,75820.5017,278.9525
163,2452.5,75681.897,278.91949999999997
164,2467.5,75543.29830000001,278.88649999999996
165,2482.5,75404.8523,278.85049999999995
166,2497.5,75266.5527,278.81149999999997
167,2512.5,75128.2471,278.7725
168,2527.5,74990.0513,278.733
169,2542.5,74852.3499,278.691
170,2557.5,74714.6484,278.649
171,2572.5,74576.947,278.60699999999997
172,2587.5,74440.2527,278.565
173,2602.5,74303.7476,278.52299999999997
174,2617.5,74167.2485,278.481
175,2632.5,74031.0486,278.43899999999996
176,2647.5,73895.1477,278.397
177,2662.5,73759.2529,278.35499999999996
178,2677.5,73623.4985,278.313
179,2692.5,73488.50099999999,278.27099999999996
180,2707.5,73353.4973,278.229
181,2722.5,73218.49979999999,278.18699999999995
182,2737.5,73083.7524,278.1375
183,2752.5,72949.0479,278.0865
184,2767.5,72814.3494,278.03549999999996
185,2782.5,72680.1025,277.97999999999996
186,2797.5,72546.3013,277.91999999999996
187,2812.5,72412.5,277.85999999999996
188,2827.5,72278.8513,277.79949999999997
189,2842.5,72145.9473,277.7365
190,2857.5,72013.0493,277.6735
191,2872.5,71880.1514,277.6105
192,2887.5,71747.7478,277.54999999999995
193,2902.5,71615.448,277.48999999999995
194,2917.5,71483.14820000001,277.42999999999995
195,2932.5,71351.4526,277.3685
196,2947.5,71220.34909999999,277.3055
197,2962.5,71089.2517,277.24249999999995
198,2977.5,70958.197,277.1805
199,2992.5,70827.3987,277.1235
200,3007.5,70696.6003,277.06649999999996
201,3022.5,70565.802,277.0095
202,3037.5,70435.7483,276.98249999999996
203,3052.5,70305.8472,276.9615
204,3067.5,70175.9521,276.9405
205,3082.5,70046.19750000001,276.91949999999997
206,3097.5,69916.6016,276.89849999999996
207,3112.5,69786.9995,276.8775
208,3127.5,69657.59890000001,276.8565
209,3142.5,69529.1992,276.83549999999997
210,3157.5,69400.7996,276.81449999999995
211,3172.5,69272.3999,276.7935
212,3187.5,69144.5007,276.77
213,3202.5,69016.6992,276.746
214,3217.5,68888.8977,276.722
215,3232.5,68761.5479,276.6995
216,3247.5,68634.6497,276.6785
217,3262.5,68507.7515,276.65749999999997
218,3277.5,68380.95090000001,276.633
219,3292.5,68254.65090000001,276.59099999999995
220,3307.5,68128.3508,276.549
221,3322.5,68002.0508,276.507
222,3337.5,67876.2512,276.4575
223,3352.5,67750.5493,276.4065
224,3367.5,67624.8474,276.35549999999995
225,3382.5,67499.5972,276.303
226,3397.5,67374.7986,276.24899999999997
227,3412.5,67250.0,276.195
228,3427.5,67125.29909999999,276.14099999999996
229,3442.5,67001.0986,276.087
230,3457.5,66876.89820000001,276.03299999999996
231,3472.5,66752.6978,275.979
232,3487.5,66628.9978,275.92749999999995
233,3502.5,66505.40160000001,275.87649999999996
234,3517.5,66381.7993,275.8255
235,3532.5,66258.6487,275.7655
236,3547.5,66135.9497,275.69649999999996
237,3562.5,66013.2507,275.6275
238,3577.5,65890.6006,275.554
239,3592.5,65768.2007,275.45799999999997
240,3607.5,65645.8008,275.36199999999997
241,3622.5,65523.4009,275.26599999999996
242,3637.5,65401.7517,275.16999999999996
243,3652.5,65280.249,275.07399999999996
244,3667.5,65158.752400000005,274.97799999999995
245,3682.5,65037.548800000004,274.882
246,3697.5,64916.650400000006,274.786
247,3712.5,64795.75200000001,274.69
248,3727.5,64674.951199999996,274.594
249,3742.5,64554.6509,274.498
250,3757.5,64434.350600000005,274.402
251,3772.5,64314.050299999995,274.306
252,3787.5,64194.500700000004,274.2075
253,3802.5,64075.097700000006,274.1085
254,3817.5,63955.7007,274.0095
255,3832.5,63836.2976,273.91049999999996
256,3847.5,63716.90059999999,273.81149999999997
257,3862.5,63597.497599999995,273.7125
258,3877.5,63478.1982,273.613
259,3892.5,63359.399399999995,273.51099999999997
260,3907.5,63240.600600000005,273.409
261,3922.5,63121.8018,273.30699999999996
262,3937.5,63003.747599999995,273.205
263,3952.5,62885.8521,273.10299999999995
264,3967.5,62767.950399999994,273.001
265,3982.5,62650.500499999995,272.90049999999997
266,3997.5,62533.502199999995,272.8015
267,4012.5,62416.497800000005,272.7025
268,4027.5,62299.597200000004,272.60299999999995
269,4042.5,62183.19699999999,272.501
270,4057.5,62066.80300000001,272.399
271,4072.5,61950.402799999996,272.29699999999997
272,4087.5,61834.0027,272.1975
273,4102.5,61717.6025,272.0985
274,4117.5,61601.2024,271.99949999999995
275,4132.5,61485.101299999995,271.899
276,4147.5,61369.2993,271.79699999999997
277,4162.5,61253.4973,271.695
278,4177.5,61137.84789999999,271.59349999999995
279,4192.5,61022.9492,271.49449999999996
280,4207.5,60908.050500000005,271.39549999999997
281,4222.5,60793.1519,271.2965
282,4237.5,60678.4973,271.1975
283,4252.5,60563.897699999994,271.0985
284,4267.5,60449.2981,270.99949999999995
285,4282.5,60335.3027,270.899
286,4297.5,60221.899399999995,270.79699999999997
287,4312.5,60108.502199999995,270.695
288,4327.5,59995.147699999994,270.59349999999995
289,4342.5,59882.049600000006,270.49449999999996
290,4357.5,59768.951400000005,270.39549999999997
291,4372.5,59655.847200000004,270.2965
292,4387.5,59542.749,270.1975
293,4402.5,59429.6509,270.0985
294,4417.5,59316.5527,269.99949999999995
295,4432.5,59203.9001,269.90049999999997
296,4447.5,59091.6992,269.8015
297,4462.5,58979.4983,269.7025
298,4477.5,58867.45,269.6035
299,4492.5,58756.152299999994,269.50449999999995
300,4507.5,58644.8486,269.40549999999996
301,4522.5,58533.551,269.30649999999997
302,4537.5,58422.497599999995,269.205
303,4552.5,58311.499,269.10299999999995
304,4567.5,58200.500499999995,269.001
305,4582.5,58089.9475,268.90049999999997
306,4597.5,57979.852300000006,268.8015
307,4612.5,57869.751,268.7025
308,4627.5,57759.66190000001,268.60249999999996
309,4642.5,57649.5483,268.4975
310,4657.5,57539.44699999999,268.3925
311,4672.5,57429.3518,268.28749999999997
312,4687.5,57319.751,268.1825
313,4702.5,57210.247800000005,268.0775
314,4717.5,57100.750700000004,267.97249999999997
315,4732.5,56991.6992,267.86749999999995
316,4747.5,56883.09940000001,267.7625
317,4762.5,56774.5117,267.65749999999997
318,4777.5,56665.9485,267.55249999999995
319,4792.5,56557.647699999994,267.4475
320,4807.5,56449.352999999996,267.3425
321,4822.5,56341.0522,267.23749999999995
322,4837.5,56233.502199999995,267.1325
323,4852.5,56126.0986,267.0275
324,4867.5,56018.701199999996,266.92249999999996
325,4882.5,55911.2976,266.822
326,4897.5,55803.9001,266.726
327,4912.5,55696.5027,266.63
328,4927.5,55589.2517,266.5345
329,4942.5,55482.7515,266.44149999999996
330,4957.5,55376.2512,266.3485
331,4972.5,55269.751,266.2555
332,4987.5,55163.501,266.15999999999997
333,5002.5,55057.2998,266.06399999999996
334,5017.5,54951.0986,265.96799999999996
335,5032.5,54845.3491,265.8735
336,5047.5,54740.05130000001,265.78049999999996
337,5062.5,54634.7473,265.6875
338,5077.5,54529.5471,265.594
339,5092.5,54424.8474,265.498
340,5107.5,54320.147699999994,265.402
341,5122.5,54215.448000000004,265.306
342,5137.5,54110.9985,265.2175
343,5152.5,54006.59789999999,265.1305
344,5167.5,53902.1973,265.0435
345,5182.5,53798.1018,264.95799999999997
346,5197.5,53694.2993,264.87399999999997
347,5212.5,53590.5029,264.78999999999996
348,5227.5,53486.749299999996,264.70599999999996
349,5242.5,53383.25200000001,264.62199999999996
350,5257.5,53279.7485,264.53799999999995
351,5272.5,53176.2512,264.45399999999995
352,5287.5,53073.4985,264.37
353,5302.5,52970.8984,264.286
354,5317.5,52868.2983,264.202
355,5332.5,52766.149900000004,264.118
356,5347.5,52664.44699999999,264.034
357,5362.5,52562.7502,263.95
358,5377.5,52461.047399999996,263.86499999999995
359,5392.5,52359.350600000005,263.775
360,5407.5,52257.647699999994,263.685
361,5422.5,52155.9509,263.59499999999997
362,5437.5,52054.7485,263.4975
363,5452.5,51953.649900000004,263.39849999999996
364,5467.5,51852.55130000001,263.29949999999997
365,5482.5,51751.7517,263.2005
366,5497.5,51651.2512,263.1015
367,5512.5,51550.750700000004,263.0025
368,5527.5,51450.2991,262.90349999999995
369,5542.5,51350.097700000006,262.80449999999996
370,5557.5,51249.902299999994,262.7055
371,5572.5,51149.700899999996,262.6065
372,5587.5,51050.500499999995,262.505
373,5602.5,50951.5015,262.40299999999996
374,5617.5,50852.4994,262.301
375,5632.5,50753.6499,262.2005
376,5647.5,50654.950000000004,262.1015
377,5662.5,50556.25,262.0025
378,5677.5,50457.5989,261.90549999999996
379,5692.5,50359.201,261.8185
380,5707.5,50260.8002,261.7315
381,5722.5,50162.3993,261.6445
382,5737.5,50064.248700000004,261.5625
383,5752.5,49966.1499,261.4815
384,5767.5,49868.051100000004,261.40049999999997
385,5782.5,49770.2515,261.318
386,5797.5,49672.7509,261.234
387,5812.5,49575.2502,261.15
388,5827.5,49477.8992,261.066
389,5842.5,49381.298800000004,260.98199999999997
390,5857.5,49284.6985,260.89799999999997
391,5872.5,49188.1012,260.81399999999996
392,5887.5,49092.001299999996,260.73249999999996
393,5902.5,48995.9991,260.6515
394,5917.5,48900.0,260.5705
395,5932.5,48804.1504,260.49249999999995
396,5947.5,48708.4503,260.41749999999996
397,5962.5,48612.7502,260.3425
398,5977.5,48517.099,260.272
399,5992.5,48421.701,260.224
400,6007.5,48326.299999999996,260.176
401,6022.5,48230.899,260.128
402,6037.5,48136.2488,260.0775
403,6052.5,48041.7511,260.0265
404,6067.5,47947.250400000004,259.97549999999995
405,6082.5,47852.8992,259.92449999999997
406,6097.5,47758.7006,259.8735
407,6112.5,47664.4989,259.8225
408,6127.5,47570.401,259.772
409,6142.5,47476.800500000005,259.724
410,6157.5,47383.2001,259.676
411,6172.5,47289.5996,259.628
412,6187.5,47196.749899999995,259.5775
413,6202.5,47104.0497,259.5265
414,6217.5,47011.3495,259.47549999999995
415,6232.5,46918.6493,259.40799999999996
416,6247.5,46825.949100000005,259.32399999999996
417,6262.5,46733.2489,259.23999999999995
418,6277.5,46640.6494,259.155
419,6292.5,46548.5504,259.065
420,6307.5,46456.4514,258.97499999999997
421,6322.5,46364.3494,258.885
422,6337.5,46272.7509,258.79499999999996
423,6352.5,46181.25,258.705
424,6367.5,46089.7491,258.61499999999995
425,6382.5,45998.5504,258.525
426,6397.5,45907.650799999996,258.435
427,6412.5,45816.7511,258.34499999999997
428,6427.5,45725.949100000005,258.255
429,6442.5,45635.6506,258.16499999999996
430,6457.5,45545.3491,258.075
431,6472.5,45455.0507,257.98499999999996
432,6487.5,45364.9994,257.8875
433,6502.5,45275.0,257.7885
434,6517.5,45185.0006,257.68949999999995
435,6532.5,45095.150799999996,257.58299999999997
436,6547.5,45005.4504,257.469
437,6562.5,44915.750100000005,257.35499999999996
438,6577.5,44826.1505,257.2415
439,6592.5,44737.051400000004,257.130499
440,6607.5,44647.9492,257.019499
441,6622.5,44558.8501,256.908499
442,6637.5,44470.2515,256.79499999999996
443,6652.5,44381.750499999995,256.681
444,6667.5,44293.249500000005,256.567
445,6682.5,44205.0507,256.454501
446,6697.5,44117.1509,256.343501
447,6712.5,44029.2511,256.23249999999996
448,6727.5,43941.4001,256.121001
449,6742.5,43853.7994,256.00699999999995
450,6757.5,43766.1987,255.89299999999997
451,6772.5,43678.6011,255.77899999999997
452,6787.5,43591.2506,255.65999999999997
453,6802.5,43503.949,255.53999899999997
454,6817.5,43416.6504,255.42
455,6832.5,43329.501299999996,255.2985
456,6847.5,43242.4988,255.17549899999997
457,6862.5,43155.4993,255.05249999999998
458,6877.5,43068.6005,254.93000099999998
459,6892.5,42982.199100000005,254.80999999999997
460,6907.5,42895.8008,254.69000099999997
461,6922.5,42809.3994,254.57
462,6937.5,42723.4985,254.447501
463,6952.5,42637.7014,254.32449999999997
464,6967.5,42551.9012,254.20149999999998
465,6982.5,42466.4001,254.07999999999998
466,6997.5,42381.201199999996,253.95999899999998
467,7012.5,42295.9991,253.84000099999997
468,7027.5,42210.849,253.71949999999998
469,7042.5,42125.949100000005,253.596501
470,7057.5,42041.049199999994,253.47349999999997
471,7072.5,41956.1493,253.35049999999998
472,7087.5,41871.2494,253.21999999999997
473,7102.5,41786.3495,253.08799999999997
474,7117.5,41701.4496,252.956
475,7132.5,41616.8488,252.82550099999997
476,7147.5,41532.549999999996,252.696499
477,7162.5,41448.251299999996,252.56749999999997
478,7177.5,41364.0503,252.43849999999998
479,7192.5,41280.3497,252.30949999999999
480,7207.5,41196.6492,252.18049999999997
481,7222.5,41112.948599999996,252.05150099999997
482,7237.5,41029.501299999996,251.922499
483,7252.5,40946.0999,251.79349899999997
484,7267.5,40862.7014,251.66449999999998
485,7282.5,40779.7485,251.53549999999998
486,7297.5,40697.250400000004,251.40649999999997
487,7312.5,40614.7491,251.27750099999997
488,7327.5,40532.2998,251.14900099999997
489,7342.5,40450.1007,251.02299899999997
490,7357.5,40367.8986,250.897
491,7372.5,40285.699499999995,250.771
492,7387.5,40203.250100000005,250.65499899999998
493,7402.5,40120.7489,250.54100099999997
494,7417.5,40038.2507,250.42699999999996
495,7432.5,39956.201199999996,250.313
496,7447.5,39874.6002,250.19899999999998
497,7462.5,39792.9993,250.08499899999998
498,7477.5,39711.4502,249.97099899999998
499,7492.5,39630.1514,249.85700099999997
500,7507.5,39548.8495,249.74299999999997
501,7522.5,39467.5507,249.62899999999996
502,7537.5,39386.999500000005,249.51749999999998
503,7552.5,39306.601,249.40649999999997
504,7567.5,39226.1993,249.29549999999998
505,7582.5,39145.9503,249.183001
506,7597.5,39065.8508,249.069001
507,7612.5,38985.751299999996,248.95499999999998
508,7627.5,38905.7007,248.846501
509,7642.5,38825.9003,248.76549899999998
510,7657.5,38746.0999,248.68449999999999
511,7672.5,38666.2994,248.60350099999997
512,7687.5,38586.7493,248.547499
513,7702.5,38507.251000000004,248.49649999999997
514,7717.5,38427.749599999996,248.44549999999998
515,7732.5,38348.5504,248.39449899999997
516,7747.5,38269.6503,248.34350099999997
517,7762.5,38190.750100000005,248.29249999999996
518,7777.5,38111.8988,248.24149899999998
519,7792.5,38033.3008,248.19050099999998
520,7807.5,37954.6997,248.13949999999997
521,7822.5,37876.0986,248.08849899999998
522,7837.5,37798.251299999996,248.03750099999996
523,7852.5,37720.550500000005,247.98649999999998
524,7867.5,37642.8497,247.9355
525,7882.5,37565.3015,247.88450099999997
526,7897.5,37487.8998,247.8335
527,7912.5,37410.5011,247.78249999999997
528,7927.5,37333.1512,247.72699999999998
529,7942.5,37256.0486,247.64900099999997
530,7957.5,37178.949,247.57099999999997
531,7972.5,37101.8494,247.49299999999997
532,7987.5,37025.2502,247.40749999999997
533,8002.5,36948.7488,247.32049999999998
534,8017.5,36872.250400000004,247.2335
535,8032.5,36795.9015,247.14799899999997
536,8047.5,36719.699100000005,247.06399999999996
537,8062.5,36643.4998,246.97999999999996
538,8077.5,36567.4011,246.896
539,8092.5,36491.7999,246.81200099999998
540,8107.5,36416.1987,246.72799899999998
541,8122.5,36340.6006,246.64399899999998
542,8137.5,36265.249599999996,246.55999999999997
543,8152.5,36189.9506,246.47599999999997
544,8167.5,36114.6515,246.39200099999996
545,8182.5,36039.6515,246.30199999999996
546,8197.5,35964.9506,246.206
547,8212.5,35890.249599999996,246.109999
548,8227.5,35815.6006,246.00950099999997
549,8242.5,35741.1987,245.88649999999998
550,8257.5,35666.7999,245.76350099999996
551,8272.5,35592.4011,245.64049899999998
552,8287.5,35518.249500000005,245.52000099999998
553,8302.5,35444.1498,245.39999999999998
554,8317.5,35370.049999999996,245.27999899999998
555,8332.5,35296.0999,245.15849899999998
556,8347.5,35222.299199999994,245.03549999999998
557,8362.5,35148.4985,244.91250099999996
558,8377.5,35074.8505,244.78949999999998
559,8392.5,35001.9501,244.66649999999998
560,8407.5,34929.0497,244.54349899999997
561,8422.5,34856.1493,244.42049999999998
562,8437.5,34783.4991,244.29999999999998
563,8452.5,34710.9009,244.18000099999998
564,8467.5,34638.2996,244.05999999999997
565,8482.5,34565.7013,243.93849999999998
566,8497.5,34493.1,243.81550099999998
567,8512.5,34420.498700000004,243.69249999999997
568,8527.5,34347.9492,243.56949999999998
569,8542.5,34275.65,243.446499
570,8557.5,34203.3508,243.32349999999997
571,8572.5,34131.0486,243.20050099999997
572,8587.5,34059.249899999995,243.0775
573,8602.5,33987.548800000004,242.95450099999996
574,8617.5,33915.8508,242.83149899999998
575,8632.5,33844.448899999996,242.7085
576,8647.5,33773.349,242.58549899999997
577,8662.5,33702.2491,242.46249999999998
578,8677.5,33631.201199999996,242.33950099999998
579,8692.5,33560.4004,242.21649999999997
580,8707.5,33489.5996,242.09350099999997
581,8722.5,33418.798800000004,241.970499
582,8737.5,33348.251299999996,241.84749999999997
583,8752.5,33277.749599999996,241.72449899999998
584,8767.5,33207.251000000004,241.6015
585,8782.5,33136.7493,241.47999999999996
586,8797.5,33066.2506,241.359999
587,8812.5,32995.7489,241.23999999999998
588,8827.5,32925.3998,241.120501
589,8842.5,32855.801400000004,241.00349999999997
590,8857.5,32786.200000000004,240.88649999999998
591,8872.5,32716.598499999996,240.76949899999997
592,8887.5,32647.0001,240.64999999999998
593,8902.5,32577.398699999998,240.53000099999997
594,8917.5,32507.800300000003,240.40999799999997
595,8932.5,32438.6505,240.28999899999997
596,8947.5,32369.9493,240.17
597,8962.5,32301.251200000002,240.05000199999998
598,8977.5,32232.5989,239.92999899999998
599,8992.5,32164.1998,239.80999999999997
600,9007.5,32095.8008,239.69000099999997
601,9022.5,32027.398699999998,239.56999799999997
602,9037.5,31958.9996,239.447501
603,9052.5,31890.600599999998,239.32449999999997
604,9067.5,31822.198500000002,239.201498
605,9082.5,31753.949,239.07850099999996
606,9097.5,31685.849000000002,238.95549999999997
607,9112.5,31617.748999999996,238.83249899999998
608,9127.5,31549.7009,238.709502
609,9142.5,31481.9,238.58650099999997
610,9157.5,31414.0991,238.46349899999998
611,9172.5,31346.3013,238.34049799999997
612,9187.5,31279.251099999998,238.21750099999997
613,9202.5,31212.3505,238.09449999999998
614,9217.5,31145.4498,237.971499
615,9232.5,31078.549199999998,237.84850199999997
616,9247.5,31011.6486,237.72549999999998
617,9262.5,30944.751000000004,237.60249899999997
618,9277.5,30877.9999,237.47949799999998
619,9292.5,30811.9995,237.35650099999998
620,9307.5,30745.9991,237.2335
621,9322.5,30679.998799999998,237.11049899999998
622,9337.5,30613.751200000002,236.984999
623,9352.5,30547.4487,236.85899999999998
624,9367.5,30481.149299999997,236.73299999999998
625,9382.5,30414.9994,236.60700099999997
626,9397.5,30348.998999999996,236.481001
627,9412.5,30282.9987,236.35500199999998
628,9427.5,30217.099000000002,236.228999
629,9442.5,30151.6998,236.10299899999998
630,9457.5,30086.3007,235.97699999999998
631,9472.5,30020.901500000004,235.85099999999997
632,9487.5,29955.9998,235.72500099999996
633,9502.5,29891.1987,235.599001
634,9517.5,29826.4008,235.47300199999998
635,9532.5,29761.749300000003,235.34699899999998
636,9547.5,29697.2504,235.22099899999998
637,9562.5,29632.751500000002,235.09499999999997
638,9577.5,29568.3014,234.969
639,9592.5,29504.098499999996,234.843001
640,9607.5,29439.898699999998,234.71700099999998
641,9622.5,29375.698899999996,234.59100199999997
642,9637.5,29311.749300000003,234.46999999999997
643,9652.5,29247.848499999996,234.35000099999996
644,9667.5,29183.950800000002,234.23000199999998
645,9682.5,29120.05,234.109999
646,9697.5,29056.149299999997,233.98999999999998
647,9712.5,28992.248499999998,233.87000099999997
648,9727.5,28928.448500000002,233.750498
649,9742.5,28865.148900000004,233.63350099999997
650,9757.5,28801.8494,233.51650099999998
651,9772.5,28738.549799999997,233.3995
652,9787.5,28675.750699999997,233.28000099999997
653,9802.5,28613.0493,233.15999799999997
654,9817.5,28550.351000000002,233.03999899999997
655,9832.5,28487.7991,232.92
656,9847.5,28425.399800000003,232.80000199999998
657,9862.5,28363.0005,232.67999899999998
658,9877.5,28300.65,232.55999999999997
659,9892.5,28238.549799999997,232.44000099999997
660,9907.5,28176.4496,232.31999799999997
661,9922.5,28114.3494,232.199999
662,9937.5,28052.2491,232.07750199999998
663,9952.5,27990.148900000004,231.954501
664,9967.5,27928.0487,231.83149899999998
665,9982.5,27866.2506,231.70699899999997
666,9997.5,27804.748499999998,231.58099999999996
667,10012.5,27743.2495,231.45499999999998
668,10027.5,27681.7993,231.329501
669,10042.5,27620.5994,231.20649899999998
670,10057.5,27559.399400000002,231.08349799999996
671,10072.5,27498.1995,230.96050099999997
672,10087.5,27437.5,230.83749999999998
673,10102.5,27376.901199999997,230.714499
674,10117.5,27316.299400000004,230.591502
675,10132.5,27255.850199999997,230.46850099999997
676,10147.5,27195.5505,230.34549899999996
677,10162.5,27135.2509,230.22249799999997
678,10177.5,27074.9512,230.09950099999998
679,10192.5,27014.651500000004,229.9765
680,10207.5,26954.348800000003,229.85349899999997
681,10222.5,26894.0491,229.73050199999997
682,10237.5,26834.2499,229.60500199999998
683,10252.5,26774.5514,229.478999
684,10267.5,26714.8499,229.35299899999998
685,10282.5,26655.1514,229.22849899999997
686,10297.5,26595.4498,229.10550199999997
687,10312.5,26535.7513,228.9825
688,10327.5,26476.1505,228.85899999999998
689,10342.5,26417.0502,228.73299999999998
690,10357.5,26357.9498,228.60700099999997
691,10372.5,26298.8495,228.481001
692,10387.5,26240.2496,228.35500199999998
693,10402.5,26181.7505,228.228999
694,10417.5,26123.2513,228.10299899999998
695,10432.5,26064.898699999998,227.97849899999997
696,10447.5,26006.6986,227.85550199999997
697,10462.5,25948.498499999998,227.7325
698,10477.5,25890.2496,227.60899999999998
699,10492.5,25831.7505,227.48299999999998
700,10507.5,25773.2513,227.35700099999997
701,10522.5,25714.7491,227.231001
702,10537.5,25656.7505,227.1075
703,10552.5,25598.8495,226.98449899999997
704,10567.5,25540.95,226.86149799999998
705,10582.5,25483.3496,226.73850099999999
706,10597.5,25426.0498,226.61549999999997
707,10612.5,25368.75,226.49249899999998
708,10627.5,25311.5005,226.36950099999999
709,10642.5,25254.499799999998,226.24649999999997
710,10657.5,25197.5006,226.12349899999998
711,10672.5,25140.4999,226.000498
712,10687.5,25083.7494,225.87499799999998
713,10702.5,25027.0493,225.74899899999997
714,10717.5,24970.3506,225.623
715,10732.5,24913.8,225.49849899999998
716,10747.5,24857.4005,225.375498
717,10762.5,24800.9995,225.25250099999997
718,10777.5,24744.5999,225.12899999999996
719,10792.5,24688.200399999998,225.00300099999998
720,10807.5,24631.7993,224.87700099999998
721,10822.5,24575.3998,224.75100199999997
722,10837.5,24519.250500000002,224.62750099999997
723,10852.5,24463.149999999998,224.50449999999998
724,10867.5,24407.0496,224.38149899999996
725,10882.5,24351.2497,224.25699799999998
726,10897.5,24295.7504,224.13099899999997
727,10912.5,24240.249600000003,224.00499999999997
728,10927.5,24184.8495,223.87949999999998
729,10942.5,24129.95,223.75649899999996
730,10957.5,24075.0504,223.63350099999997
731,10972.5,24020.1508,223.51049999999998
732,10987.5,23965.4999,223.385001
733,11002.5,23910.8994,223.25900099999998
734,11017.5,23856.3004,223.13300199999998
735,11032.5,23801.6998,223.010001
736,11047.5,23747.099299999998,222.89000199999998
737,11062.5,23692.5003,222.76999899999998
738,11077.5,23637.8998,222.65099899999998
739,11092.5,23583.2993,222.53700099999998
740,11107.5,23528.7003,222.42299899999998
741,11122.5,23474.0997,222.30899999999997
742,11137.5,23419.9997,222.19249999999997
743,11152.5,23366.000399999997,222.07549899999998
744,11167.5,23311.999499999998,221.95849799999996
745,11182.5,23258.2993,221.841502
746,11197.5,23204.899599999997,221.72450099999998
747,11212.5,23151.4999,221.6075
748,11227.5,23098.1003,221.49099999999999
749,11242.5,23044.7006,221.37700099999998
750,11257.5,22991.2994,221.26299899999998
751,11272.5,22937.8998,221.14900099999997
752,11287.5,22885.2493,221.03249999999997
753,11302.5,22832.7499,220.91549899999998
754,11317.5,22780.2505,220.798499
755,11332.5,22727.6001,220.67999899999998
756,11347.5,22674.8001,220.55999999999997
757,11362.5,22622.0001,220.44000099999997
758,11377.5,22569.250500000002,220.31949799999998
759,11392.5,22516.7496,220.19650099999998
760,11407.5,22464.250200000002,220.07349999999997
761,11422.5,22411.7493,219.95049899999998
762,11437.5,22359.5001,219.82999999999998
763,11452.5,22307.2998,219.71000099999998
764,11467.5,22255.0995,219.58999899999998
765,11482.5,22203.1998,219.46999999999997
766,11497.5,22151.6006,219.35000099999996
767,11512.5,22100.0,219.23000199999998
768,11527.5,22048.4497,219.10949899999997
769,11542.5,21997.1497,218.98649799999998
770,11557.5,21945.8496,218.86350099999999
771,11572.5,21894.5496,218.74049999999997
772,11587.5,21843.4998,218.62000099999997
773,11602.5,21792.5003,218.49999799999998
774,11617.5,21741.4993,218.37999999999997
775,11632.5,21690.4999,218.255499
776,11647.5,21639.5004,218.12650099999996
777,11662.5,21588.4995,217.99749999999997
778,11677.5,21537.6007,217.868498
779,11692.5,21487.1994,217.73949999999996
780,11707.5,21436.799600000002,217.61049899999998
781,11722.5,21386.3998,217.48150099999998
782,11737.5,21336.0001,217.35249899999997
783,11752.5,21285.6003,217.22350199999997
784,11767.5,21235.2005,217.09449999999998
785,11782.5,21185.0998,216.96549799999997
786,11797.5,21135.2997,216.83650099999997
787,11812.5,21085.4996,216.70749899999998
788,11827.5,21035.8002,216.57850099999996
789,11842.5,20986.5997,216.44949999999997
790,11857.5,20937.3993,216.32050199999998
791,11872.5,20888.200399999998,216.19149999999996
792,11887.5,20838.7497,216.09749799999997
793,11902.5,20789.250200000002,216.01049999999998
794,11917.5,20739.7507,215.923499
795,11932.5,20690.400700000002,215.83650099999997
796,11947.5,20641.2003,215.749499
797,11962.5,20591.999799999998,215.66250099999996
798,11977.5,20542.9001,215.57549899999998
799,11992.5,20494.2993,215.48850099999999
800,12007.5,20445.7001,215.40149899999997
801,12022.5,20397.099299999998,215.31450099999998
802,12037.5,20348.7503,215.22749899999997
803,12052.5,20300.450100000002,215.14050099999997
804,12067.5,20252.15,215.05349999999999
805,12082.5,20203.9993,214.966502
806,12097.5,20155.9998,214.87949999999998
807,12112.5,20108.000200000002,214.79250199999998
808,12127.5,20060.0494,214.71150099999997
809,12142.5,20012.3505,214.66050199999998
810,12157.5,19964.65,214.60949899999997
811,12172.5,19916.949500000002,214.55850099999998
812,12187.5,19869.7495,214.53999899999997
813,12202.5,19822.650100000003,214.52799799999997
814,12217.5,19775.5493,214.51600099999996
815,12232.5,19728.45,214.50250099999997
816,12247.5,19681.3507,214.48750199999998
817,12262.5,19634.2499,214.47249799999997
818,12277.5,19587.2498,214.45749899999998
819,12292.5,19540.7501,214.44249999999997
820,12307.5,19494.250500000002,214.42749999999998
821,12322.5,19447.7493,214.41250099999996
822,12337.5,19401.2497,214.39750099999998
823,12352.5,19354.7501,214.38249799999997
824,12367.5,19308.2504,214.36749899999998
825,12382.5,19262.049899999998,214.35249899999997
826,12397.5,19216.1499,214.33749999999998
827,12412.5,19170.2499,214.322501
828,12427.5,19124.4507,214.31949799999998
829,12442.5,19079.1504,214.37650099999996
830,12457.5,19033.8501,214.43350099999998
831,12472.5,18988.5498,214.49049999999997
832,12487.5,18943.4998,214.55999999999997
833,12502.5,18898.5001,214.63199799999998
834,12517.5,18853.500399999997,214.70400099999998
835,12532.5,18808.6502,214.77599899999998
836,12547.5,18763.9496,214.84800199999998
837,12562.5,18719.250500000002,214.92
838,12577.5,18674.6002,214.99149899999998
839,12592.5,18630.2002,215.0605
840,12607.5,18585.8002,215.12949999999998
841,12622.5,18541.400100000003,215.19849999999997
842,12637.5,18497.5006,215.26999899999998
843,12652.5,18453.7003,215.34200099999998
844,12667.5,18409.8999,215.414
845,12682.5,18366.0995,215.48299999999998
846,12697.5,18322.3007,215.54899799999998
847,12712.5,18278.500399999997,215.61499999999998
848,12727.5,18234.8007,215.67199899999997
849,12742.5,18191.6,215.68399999999997
850,12757.5,18148.3994,215.69600099999997
851,12772.5,18105.2002,215.70799899999997
852,12787.5,18062.5,215.72249799999997
853,12802.5,18019.9005,215.73750199999998
854,12817.5,17977.2995,215.75250099999997
855,12832.5,17934.7,215.76600099999996
856,12847.5,17892.1005,215.77799799999997
857,12862.5,17849.499499999998,215.78999899999997
858,12877.5,17807.0007,215.80249999999998
859,12892.5,17764.9994,215.81749999999997
860,12907.5,17722.9996,215.83249899999998
861,12922.5,17680.9998,215.84749799999997
862,12937.5,17639.250200000002,215.859999
863,12952.5,17597.5494,215.87199999999999
864,12967.5,17555.8502,215.88400099999998
865,12982.5,17514.1495,215.88400099999998
866,12997.5,17472.4503,215.87199999999999
867,13012.5,17430.749499999998,215.859999
868,13027.5,17389.1495,215.84049799999997
869,13042.5,17348.0499,215.78349899999998
870,13057.5,17306.950399999998,215.7265
871,13072.5,17265.849299999998,215.66950099999997
872,13087.5,17225.0,215.61250199999998
873,13102.5,17184.1995,215.55549899999997
874,13117.5,17143.4006,215.49849899999998
875,13132.5,17102.749600000003,215.442999
876,13147.5,17062.2498,215.388998
877,13162.5,17021.7499,215.33500099999998
878,13177.5,16981.25,215.280501
879,13192.5,16940.7501,215.22350199999997
880,13207.5,16900.2502,215.166499
881,13222.5,16859.750399999997,215.10949899999997
882,13237.5,16819.7495,215.05249999999998
883,13252.5,16779.8492,214.995501
884,13267.5,16739.9506,214.93850199999997
885,13282.5,16700.1999,214.88300199999998
886,13297.5,16660.6003,214.82900099999998
887,13312.5,16621.0007,214.77499999999998
888,13327.5,16581.3995,214.72099899999998
889,13342.5,16541.7999,214.66699799999998
890,13357.5,16502.2003,214.61300099999997
891,13372.5,16462.6007,214.55899999999997
892,13387.5,16423.5001,214.50499999999997
893,13402.5,16384.5001,214.45099899999997
894,13417.5,16345.5002,214.397002
895,13432.5,16306.500199999999,214.343001
896,13447.5,16267.5003,214.289
897,13462.5,16228.500399999999,214.234999
898,13477.5,16189.5996,214.18449999999999
899,13492.5,16151.199299999998,214.15149899999997
900,13507.5,16112.8006,214.118498
901,13522.5,16074.4003,214.08550099999997
902,13537.5,16036.2503,214.15500099999997
903,13552.5,15998.150599999999,214.24500099999997
904,13567.5,15960.0494,214.33500099999998
905,13582.5,15922.0993,214.42500199999998
906,13597.5,15884.300200000001,214.51500199999998
907,13612.5,15846.499600000001,214.60500199999998
908,13627.5,15808.7006,214.69499799999997
909,13642.5,15770.9,214.78499799999997
910,13657.5,15733.099400000001,214.87499799999998
911,13672.5,15695.300299999999,214.96499899999998
912,13687.5,15658.0002,215.05249999999998
913,13702.5,15620.799299999999,215.13949799999997
914,13717.5,15583.5999,215.2265
915,13732.5,15546.55,215.30449899999996
916,13747.5,15509.6497,215.37349899999998
917,13762.5,15472.749300000001,215.44249999999997
918,13777.5,15435.8994,215.50399999999996
919,13792.5,15399.2996,215.52799799999997
920,13807.5,15362.699900000001,215.55199999999996
921,13822.5,15326.100199999999,215.57599899999997
922,13837.5,15289.750699999999,215.60000099999996
923,13852.5,15253.45,215.62399899999997
924,13867.5,15217.1494,215.64800099999997
925,13882.5,15181.149300000001,215.67199899999997
926,13897.5,15145.4498,215.69600099999997
927,13912.5,15109.750399999999,215.71999999999997
928,13927.5,15074.049400000002,215.743498
929,13942.5,15038.3499,215.76449799999997
930,13957.5,15002.650499999998,215.78550199999998
931,13972.5,14966.9495,215.80650199999997
932,13987.5,14931.500199999999,215.81749999999997
933,14002.5,14896.0999,215.826498
934,14017.5,14860.6995,215.83550099999997
935,14032.5,14825.4501,215.83249899999998
936,14047.5,14790.3503,215.81749999999997
937,14062.5,14755.2505,215.80249999999998
938,14077.5,14720.1996,215.78750099999996
939,14092.5,14685.4004,215.77250099999998
940,14107.5,14650.5997,215.75749799999997
941,14122.5,14615.800500000001,215.74249899999998
942,14137.5,14580.999800000001,215.72500099999996
943,14152.5,14546.2006,215.70699899999997
944,14167.5,14511.399800000001,215.68900099999996
945,14182.5,14476.899700000002,215.672499
946,14197.5,14442.7002,215.65749999999997
947,14212.5,14408.500699999999,215.64249999999998
948,14227.5,14374.35,215.62849999999997
949,14242.5,14340.449499999999,215.61950099999999
950,14257.5,14306.5506,215.61049899999998
951,14272.5,14272.6501,215.6015
952,14287.5,14238.7497,215.59499999999997
953,14302.5,14204.8492,215.58899899999997
954,14317.5,14170.9503,215.58299899999997
955,14332.5,14137.350499999999,215.57850099999996
956,14347.5,14104.0497,215.57549899999998
957,14362.5,14070.7504,215.572501
958,14377.5,14037.4496,215.56949799999998
959,14392.5,14004.1504,215.56649999999996
960,14407.5,13970.8496,215.56350199999997
961,14422.5,13937.5504,215.5605
962,14437.5,13904.4998,215.55750099999997
963,14452.5,13871.499600000001,215.55449899999996
964,14467.5,13838.4995,215.55150099999997
965,14482.5,13805.6503,215.55000199999998
966,14497.5,13772.950700000001,215.55000199999998
967,14512.5,13740.249600000001,215.55000199999998
968,14527.5,13707.600400000001,215.55399899999998
969,14542.5,13675.199900000001,215.57800099999997
970,14557.5,13642.799400000002,215.60199999999998
971,14572.5,13610.4004,215.62600199999997
972,14587.5,13577.9999,215.64999999999998
973,14602.5,13545.599400000001,215.67399799999998
974,14617.5,13513.2004,215.69799999999998
975,14632.5,13481.100499999999,215.72049899999996
976,14647.5,13449.2996,215.74149899999998
977,14662.5,13417.5003,215.762499
978,14677.5,13385.7498,215.783999
979,14692.5,13354.2496,215.808001
980,14707.5,13322.749300000001,215.83199899999997
981,14722.5,13291.250600000001,215.856001
982,14737.5,13259.750399999999,215.87249999999997
983,14752.5,13228.2501,215.887499
984,14767.5,13196.7499,215.90249899999998
985,14782.5,13165.4007,215.90699999999998
986,14797.5,13134.199499999999,215.90099899999998
987,14812.5,13102.9999,215.89499899999998
988,14827.5,13071.8506,215.888998
989,14842.5,13040.95,215.88300199999998
990,14857.5,13010.0494,215.87700099999998
991,14872.5,12979.1504,215.87100099999998
992,14887.5,12948.500100000001,215.86250199999998
993,14902.5,12917.9001,215.85349899999997
994,14917.5,12887.300099999999,215.84449999999998
995,14932.5,12856.7001,215.837
996,14947.5,12826.100199999999,215.83099999999996
997,14962.5,12795.500199999999,215.824999
998,14977.5,12765.0002,215.81949799999998
999,14992.5,12734.9998,215.81649999999996
1000,15007.5,12705.0003,215.81350199999997
1001,15022.5,12675.0,215.8105
1002,15037.5,12644.9997,215.82750199999998
1003,15052.5,12615.0002,215.84850199999997
1004,15067.5,12584.9998,215.86950099999999
1005,15082.5,12555.1498,215.89050099999997
1006,15097.5,12525.4501,215.911501
1007,15112.5,12495.7497,215.93250099999997
1008,15127.5,12466.1003,215.95350099999996
1009,15142.5,12436.6997,215.97450099999998
1010,15157.5,12407.2998,215.995501
1011,15172.5,12377.8999,216.01650099999998
1012,15187.5,12348.5001,216.03499799999997
1013,15202.5,12319.100199999999,216.05299999999997
1014,15217.5,12289.7003,216.07100099999997
1015,15232.5,12260.6003,216.09200099999998
1016,15247.5,12231.8001,216.11599999999999
1017,15262.5,12202.9999,216.14000199999998
1018,15277.5,12174.1997,216.16699799999998
1019,15292.5,12145.4002,216.20899799999998
1020,15307.5,12116.6,216.25100199999997
1021,15322.5,12087.7998,216.29300199999997
1022,15337.5,12059.2499,216.33249899999998
1023,15352.5,12030.7503,216.37149999999997
1024,15367.5,12002.249899999999,216.41050199999998
1025,15382.5,11973.8998,216.44949999999997
1026,15397.5,11945.7001,216.48850099999999
1027,15412.5,11917.5003,216.52749899999998
1028,15427.5,11889.3501,216.56649999999996
1029,15442.5,11861.4502,216.60550199999997
1030,15457.5,11833.5503,216.64449899999997
1031,15472.5,11805.650300000001,216.68350099999998
1032,15487.5,11777.7496,216.71499899999998
1033,15502.5,11749.8497,216.74500099999997
1034,15517.5,11721.9498,216.77499999999998
1035,15532.5,11694.2001,216.783999
1036,15547.5,11666.6,216.772002
1037,15562.5,11638.9999,216.760001
1038,15577.5,11611.4502,216.74749999999997
1039,15592.5,11584.1499,216.7325
1040,15607.5,11556.849699999999,216.71750099999997
1041,15622.5,11529.5502,216.70250199999998
1042,15637.5,11502.249899999999,216.68749799999998
1043,15652.5,11474.9496,216.672499
1044,15667.5,11447.6501,216.65749999999997
1045,15682.5,11420.6497,216.64399899999998
1046,15697.5,11393.9499,216.63199799999998
1047,15712.5,11367.2501,216.62000099999997
1048,15727.5,11340.5502,216.6075
1049,15742.5,11313.8496,216.59250099999997
1050,15757.5,11287.149800000001,216.57750199999998
1051,15772.5,11260.45,216.56249799999998
1052,15787.5,11233.7502,216.53750099999996
1053,15802.5,11207.0503,216.51049999999998
1054,15817.5,11180.349699999999,216.4835
1055,15832.5,11153.800200000001,216.45799899999997
1056,15847.5,11127.4002,216.43399999999997
1057,15862.5,11101.0002,216.40999799999997
1058,15877.5,11074.649800000001,216.38549999999998
1059,15892.5,11048.5497,216.3585
1060,15907.5,11022.4503,216.33149899999998
1061,15922.5,10996.3501,216.30449899999996
1062,15937.5,10970.500199999999,216.27749899999998
1063,15952.5,10944.6999,216.250498
1064,15967.5,10918.9003,216.22350199999997
1065,15982.5,10893.1,216.19799999999998
1066,15997.5,10867.2997,216.17399799999998
1067,16012.5,10841.500100000001,216.14999999999998
1068,16027.5,10815.7501,216.13649999999998
1069,16042.5,10790.2496,216.17550099999997
1070,16057.5,10764.749899999999,216.214499
1071,16072.5,10739.250199999999,216.25349999999997
1072,16087.5,10713.9999,216.30000199999998
1073,16102.5,10688.800000000001,216.34800199999998
1074,16117.5,10663.6002,216.39599799999996
1075,16132.5,10638.400300000001,216.44249999999997
1076,16147.5,10613.2004,216.48750199999998
1077,16162.5,10587.9997,216.53249999999997
1078,16177.5,10562.850199999999,216.57750199999998
1079,16192.5,10537.9501,216.62249999999997
1080,16207.5,10513.0501,216.66750199999998
1081,16222.5,10488.15,216.71249999999998
1082,16237.5,10463.5002,216.760001
1083,16252.5,10438.9,216.808001
1084,16267.5,10414.2998,216.856001
1085,16282.5,10389.7003,216.91299999999998
1086,16297.5,10365.1001,216.978999
1087,16312.5,10340.4999,217.045
1088,16327.5,10316.0004,217.11149799999998
1089,16342.5,10291.999800000001,217.18049899999997
1090,16357.5,10268.0,217.249499
1091,16372.5,10244.0002,217.31849899999997
1092,16387.5,10219.9997,217.387499
1093,16402.5,10195.999899999999,217.45649899999998
1094,16417.5,10172.0001,217.52549999999997
1095,16432.5,10148.0003,217.59449999999998
1096,16447.5,10123.9998,217.66349999999997
1097,16462.5,10100.0,217.7325
1098,16477.5,10076.0498,217.80050099999997
1099,16492.5,10052.3499,217.86350099999999
1100,16507.5,10028.6499,217.92650099999997
1101,16522.5,10004.949999999999,217.98949999999996
1102,16537.5,9981.5002,217.984999
1103,16552.5,9958.1001,217.96700099999998
1104,16567.5,9934.699999999999,217.94899999999998
1105,16582.5,9911.4502,217.93250099999997
1106,16597.5,9888.3499,217.91750199999998
1107,16612.5,9865.2496,217.90249899999998
1108,16627.5,9842.1501,217.887499
1109,16642.5,9819.0498,217.87249999999997
1110,16657.5,9795.9503,217.8575
1111,16672.5,9772.85,217.84250099999997
1112,16687.5,9750.0,217.82750199999998
1113,16702.5,9727.2003,217.81249799999998
1114,16717.5,9704.3999,217.797499
1115,16732.5,9681.600199999999,217.783999
1116,16747.5,9658.7997,217.772002
1117,16762.5,9636.0001,217.760001
1118,16777.5,9613.25,217.75349999999997
1119,16792.5,9590.7501,217.7745
1120,16807.5,9568.2503,217.79549999999998
1121,16822.5,9545.7497,217.81649999999996
1122,16837.5,9523.249800000001,217.83749999999998
1123,16852.5,9500.75,217.8585
1124,16867.5,9478.2501,217.87949999999998
1125,16882.5,9456.0501,217.89900099999997
1126,16897.5,9434.1499,217.91699799999998
1127,16912.5,9412.2498,217.93499999999997
1128,16927.5,9390.300000000001,217.95350099999996
1129,16942.5,9368.1,217.97450099999998
1130,16957.5,9345.9,217.995501
1131,16972.5,9323.699999999999,218.01650099999998
1132,16987.5,9301.750199999999,218.03750099999996
1133,17002.5,9279.85,218.05850099999998
1134,17017.5,9257.9498,218.079501
1135,17032.5,9236.199999999999,218.099001
1136,17047.5,9214.600400000001,218.11699899999996
1137,17062.5,9193.0,218.135001
1138,17077.5,9171.45,218.15299799999997
1139,17092.5,9150.1503,218.171
1140,17107.5,9128.8498,218.18900099999996
1141,17122.5,9107.550000000001,218.20699899999997
1142,17137.5,9086.2503,218.22500099999996
1143,17152.5,9064.949799999999,218.24299899999997
1144,17167.5,9043.6501,218.26099999999997
1145,17182.5,9022.4998,218.279002
1146,17197.5,9001.4999,218.29699899999997
1147,17212.5,8980.5,218.31500099999997
1148,17227.5,8959.5001,218.33349799999996
1149,17242.5,8938.5002,218.35449799999998
1150,17257.5,8917.5003,218.375498
1151,17272.5,8896.4996,218.39649799999998
1152,17287.5,8875.75,218.42749999999998
1153,17302.5,8855.0499,218.46050099999997
1154,17317.5,8834.3498,218.493498
1155,17332.5,8813.6497,218.52799799999997
1156,17347.5,8792.9497,218.56400099999996
1157,17362.5,8772.2504,218.60000099999996
1158,17377.5,8751.5999,218.63599999999997
1159,17392.5,8731.1996,218.67199899999997
1160,17407.5,8710.8002,218.70799899999997
1161,17422.5,8690.3999,218.74400199999997
1162,17437.5,8669.9997,218.78000099999997
1163,17452.5,8649.6002,218.81599999999997
1164,17467.5,8629.2,218.85199999999998
1165,17482.5,8608.95,218.88799899999998
1166,17497.5,8588.8496,218.92399799999998
1167,17512.5,8568.75,218.96000099999998
1168,17527.5,8548.699999999999,218.99500099999997
1169,17542.5,8528.9001,219.02499999999998
1170,17557.5,8509.1003,219.05499899999998
1171,17572.5,8489.2998,219.08500099999998
1172,17587.5,8469.5,219.11499999999998
1173,17602.5,8449.7002,219.14499899999998
1174,17617.5,8429.9004,219.17500199999998
1175,17632.5,8410.250100000001,219.20499999999998
1176,17647.5,8390.7501,219.234999
1177,17662.5,8371.2502,219.26500199999998
1178,17677.5,8351.750199999999,219.29450099999997
1179,17692.5,8332.2502,219.32150099999998
1180,17707.5,8312.7502,219.34850199999997
1181,17722.5,8293.2503,219.375498
1182,17737.5,8273.9998,219.40500099999997
1183,17752.5,8254.7997,219.43499999999997
1184,17767.5,8235.6003,219.46499899999998
1185,17782.5,8216.4001,219.48750199999998
1186,17797.5,8197.199999999999,219.50250099999997
1187,17812.5,8177.999900000001,219.51749999999998
1188,17827.5,8158.8501,219.52049899999997
1189,17842.5,8139.949799999999,219.46349899999998
1190,17857.5,8121.0503,219.4065
1191,17872.5,8102.150000000001,219.34950099999998
1192,17887.5,8083.2497,219.29250199999998
1193,17902.5,8064.3501,219.23549899999998
1194,17917.5,8045.4498,219.17849999999999
1195,17932.5,8026.5503,219.123
1196,17947.5,8007.65,219.06899899999996
1197,17962.5,7988.749699999999,219.01500199999998
1198,17977.5,7969.899700000001,218.96050099999997
1199,17992.5,7951.3,218.90350199999997
1200,18007.5,7932.7003,218.846499
1201,18022.5,7914.099899999999,218.78949999999998
1202,18037.5,7895.7497,218.7325
1203,18052.5,7877.449799999999,218.67550099999997
1204,18067.5,7859.1499,218.618498
1205,18082.5,7840.8501,218.58999899999998
1206,18097.5,7822.550200000001,218.58999899999998
1207,18112.5,7804.2503,218.58999899999998
1208,18127.5,7785.9497,218.593001
1209,18142.5,7767.649799999999,218.610999
1210,18157.5,7749.349999999999,218.62899999999996
1211,18172.5,7731.0501,218.647002
1212,18187.5,7712.9997,218.66499899999997
1213,18202.5,7694.999699999999,218.683001
1214,18217.5,7676.9997,218.70099899999997
1215,18232.5,7659.1499,218.719
1216,18247.5,7641.4497,218.73700199999996
1217,18262.5,7623.750300000001,218.75499999999997
1218,18277.5,7605.9998,218.77350099999998
1219,18292.5,7587.9997,218.79450099999997
1220,18307.5,7569.999699999999,218.81550099999998
1221,18322.5,7551.9997,218.83650099999997
1222,18337.5,7534.500099999999,218.85249899999997
1223,18352.5,7517.0998,218.86749899999998
1224,18367.5,7499.700199999999,218.88249799999997
1225,18382.5,7482.2998,218.89150099999998
1226,18397.5,7464.9002,218.89449899999997
1227,18412.5,7447.4998,218.89750099999998
1228,18427.5,7430.100299999999,218.90099899999998
1229,18442.5,7412.6999,218.90699999999998
1230,18457.5,7395.3003,218.91299999999998
1231,18472.5,7377.8999,218.91900099999998
1232,18487.5,7360.7498000000005,218.92500199999998
1233,18502.5,7343.650100000001,218.930998
1234,18517.5,7326.5503,218.936999
1235,18532.5,7309.4498,218.942999
1236,18547.5,7292.35,218.94899999999998
1237,18562.5,7275.2502,218.95499999999998
1238,18577.5,7258.1497,218.96100099999998
1239,18592.5,7241.05,218.96700099999998
1240,18607.5,7223.9502,218.97300199999998
1241,18622.5,7206.8497,218.978999
1242,18637.5,7190.0002,218.949999
1243,18652.5,7173.200199999999,218.914
1244,18667.5,7156.4003,218.87800099999998
1245,18682.5,7139.7499,218.84200099999998
1246,18697.5,7123.2498000000005,218.805998
1247,18712.5,7106.7497,218.76999899999998
1248,18727.5,7090.2496,218.73399999999998
1249,18742.5,7073.750300000001,218.69799999999998
1250,18757.5,7057.2502,218.66200099999998
1251,18772.5,7040.750099999999,218.62600199999997
1252,18787.5,7024.250000000001,218.58999899999998
1253,18802.5,7007.749900000001,218.55399899999998
1254,18817.5,6991.2498,218.51799999999997
1255,18832.5,6974.7498,218.48200099999997
1256,18847.5,6958.2497,218.44600099999997
1257,18862.5,6941.7503,218.40999799999997
1258,18877.5,6925.299800000001,218.37700099999998
1259,18892.5,6909.1003,218.35899999999998
1260,18907.5,6892.9001,218.34100199999997
1261,18922.5,6876.6998,218.32299999999998
1262,18937.5,6860.7498000000005,218.30750099999997
1263,18952.5,6844.850200000001,218.29250199999998
1264,18967.5,6828.9497,218.27749899999998
1265,18982.5,6813.0500999999995,218.263998
1266,18997.5,6797.1497,218.25200099999998
1267,19012.5,6781.25,218.23999999999998
1268,19027.5,6765.3503,218.22749899999997
1269,19042.5,6749.4499000000005,218.21249999999998
1270,19057.5,6733.5503,218.197501
1271,19072.5,6717.649799999999,218.18250099999997
1272,19087.5,6701.9997,218.16750199999998
1273,19102.5,6686.399799999999,218.15249899999998
1274,19117.5,6670.8,218.137499
1275,19132.5,6655.2002,218.12999999999997
1276,19147.5,6639.6004,218.12999999999997
1277,19162.5,6623.9998,218.12999999999997
1278,19177.5,6608.400000000001,218.13450099999997
1279,19192.5,6592.8000999999995,218.161501
1280,19207.5,6577.2002999999995,218.18850199999997
1281,19222.5,6561.599699999999,218.21549799999997
1282,19237.5,6546.2502,218.24500099999997
1283,19252.5,6530.950199999999,218.27499999999998
1284,19267.5,6515.6502,218.30499899999998
1285,19282.5,6500.4997,218.33500099999998
1286,19297.5,6485.5003,218.36499999999998
1287,19312.5,6470.5001999999995,218.39499899999998
1288,19327.5,6455.4497,218.42450199999996
1289,19342.5,6440.149700000001,218.451498
1290,19357.5,6424.8497,218.47849899999997
1291,19372.5,6409.5497,218.505499
1292,19387.5,6394.5,218.53499799999997
1293,19402.5,6379.4998,218.56500099999997
1294,19417.5,6364.5,218.59499999999997
1295,19432.5,6349.6498,218.63400099999998
1296,19447.5,6334.9499000000005,218.68200099999999
1297,19462.5,6320.249900000001,218.73000199999998
1298,19477.5,6305.55,218.77799799999997
1299,19492.5,6290.8501,218.82599899999997
1300,19507.5,6276.1501,218.87399899999997
1301,19522.5,6261.449799999999,218.92199899999997
1302,19537.5,6246.7499,218.96999999999997
1303,19552.5,6232.0499,219.01799999999997
1304,19567.5,6217.349999999999,219.06599999999997
1305,19582.5,6202.8,219.11400099999997
1306,19597.5,6188.3999,219.16200099999998
1307,19612.5,6174.0001999999995,219.21000099999998
1308,19627.5,6159.6001,219.25850099999997
1309,19642.5,6145.2,219.30949999999999
1310,19657.5,6130.7999,219.36049899999998
1311,19672.5,6116.4001,219.411501
1312,19687.5,6102.249900000001,219.45749899999998
1313,19702.5,6088.150000000001,219.50250099999997
1314,19717.5,6074.0501,219.547499
1315,19732.5,6059.9499000000005,219.59100199999997
1316,19747.5,6045.85,219.63300199999998
1317,19762.5,6031.7501,219.67500199999998
1318,19777.5,6017.6498,219.71750099999997
1319,19792.5,6003.55,219.762499
1320,19807.5,5989.4501,219.80750099999997
1321,19822.5,5975.3502,219.85249899999997
1322,19837.5,5961.5001999999995,219.89499899999998
1323,19852.5,5947.7001,219.936999
1324,19867.5,5933.900100000001,219.978999
1325,19882.5,5920.1,220.02250099999998
1326,19897.5,5906.3,220.06749999999997
1327,19912.5,5892.4999,220.11250199999998
1328,19927.5,5878.7498,220.15699999999998
1329,19942.5,5865.25,220.19899999999998
1330,19957.5,5851.7502,220.24099999999999
1331,19972.5,5838.25,220.28299899999996
1332,19987.5,5824.7501,220.295
1333,20002.5,5811.2499,220.30100099999999
1334,20017.5,5797.750099999999,220.30700099999999
1335,20032.5,5784.2499,220.29649999999998
1336,20047.5,5770.75,220.26949899999997
1337,20062.5,5757.2498000000005,220.24249899999998
1338,20077.5,5743.8,220.21499899999998
1339,20092.5,5730.599999999999,220.18499999999997
1340,20107.5,5717.4,220.15500099999997
1341,20122.5,5704.2,220.12499799999998
1342,20137.5,5691.0,220.09749799999997
1343,20152.5,5677.8,220.07050199999998
1344,20167.5,5664.6,220.043501
1345,20182.5,5651.400000000001,220.01650099999998
1346,20197.5,5638.2,219.98949999999996
1347,20212.5,5625.0,219.96249999999998
1348,20227.5,5611.849999999999,219.93499999999997
1349,20242.5,5598.949799999999,219.90500099999997
1350,20257.5,5586.05,219.87499799999998
1351,20272.5,5573.1499,219.84499999999997
1352,20287.5,5559.9998,219.85000099999996
1353,20302.5,5546.7999,219.86200199999996
1354,20317.5,5533.5999,219.87399899999997
1355,20332.5,5520.7001,219.90249899999998
1356,20347.5,5508.1001,219.947501
1357,20362.5,5495.5002,219.99249899999998
1358,20377.5,5482.8499,220.03799999999998
1359,20392.5,5469.9501,220.08600099999998
1360,20407.5,5457.0499,220.13400099999998
1361,20422.5,5444.1502,220.18200099999999
1362,20437.5,5431.4999,220.22749899999997
1363,20452.5,5418.8999,220.27250099999998
1364,20467.5,5406.3,220.31749999999997
1365,20482.5,5393.8499,220.36400099999997
1366,20497.5,5381.5498,220.41200099999998
1367,20512.5,5369.2501,220.46000099999998
1368,20527.5,5356.900000000001,220.50749799999997
1369,20542.5,5344.3001,220.55249999999998
1370,20557.5,5331.7001,220.59749799999997
1371,20572.5,5319.1002,220.64249999999998
1372,20587.5,5306.7501,220.67749999999998
1373,20602.5,5294.45,220.71050099999997
1374,20617.5,5282.1499,220.743498
1375,20632.5,5270.0001,220.77649899999997
1376,20647.5,5258.0002,220.80949999999999
1377,20662.5,5245.999900000001,220.84250099999997
1378,20677.5,5233.95,220.87600199999997
1379,20692.5,5221.6499,220.91200099999998
1380,20707.5,5209.3498,220.94799999999998
1381,20722.5,5197.0500999999995,220.98399999999998
1382,20737.5,5184.9998,221.01749999999998
1383,20752.5,5173.0,221.05050099999997
1384,20767.5,5161.000099999999,221.08349799999996
1385,20782.5,5149.1501,221.11649899999998
1386,20797.5,5137.45,221.1495
1387,20812.5,5125.75,221.18250099999997
1388,20827.5,5113.999900000001,221.21499899999998
1389,20842.5,5102.0,221.24500099999997
1390,20857.5,5090.0002,221.27499999999998
1391,20872.5,5077.9999,221.30499899999998
1392,20887.5,5066.2498,221.33249899999998
1393,20902.5,5054.5502,221.35949899999997
1394,20917.5,5042.8501,221.38649999999998
1395,20932.5,5031.3,221.41349999999997
1396,20947.5,5019.9001,221.44050099999998
1397,20962.5,5008.499900000001,221.46750099999997
1398,20977.5,4997.0500999999995,221.49450099999999
1399,20992.5,4985.349999999999,221.52149799999998
1400,21007.5,4973.65,221.548499
1401,21022.5,4961.9499,221.57549899999998
1402,21037.5,4950.5001,221.60249899999997
1403,21052.5,4939.0999,221.62949999999998
1404,21067.5,4927.7,221.6565
1405,21082.5,4916.4501,221.68200099999999
1406,21097.5,4905.3501,221.70599999999996
1407,21112.5,4894.2501,221.73000199999998
1408,21127.5,4883.1001,221.748
1409,21142.5,4871.6999000000005,221.735999
1410,21157.5,4860.3000999999995,221.724001
1411,21172.5,4848.8998,221.712
1412,21187.5,4837.7499,221.69499799999997
1413,21202.5,4826.6499,221.67699999999996
1414,21217.5,4815.5499,221.658999
1415,21232.5,4804.449799999999,221.64249999999998
1416,21247.5,4793.3498,221.62750099999997
1417,21262.5,4782.2498000000005,221.61250199999998
1418,21277.5,4771.1498,221.59699899999998
1419,21292.5,4760.0498,221.57900099999998
1420,21307.5,4748.949799999999,221.56099899999998
1421,21322.5,4737.8502,221.54300199999997
1422,21337.5,4727.0,221.52749899999998
1423,21352.5,4716.1999000000005,221.512499
1424,21367.5,4705.4001,221.49749999999997
1425,21382.5,4694.5999,221.481001
1426,21397.5,4683.8000999999995,221.46299999999997
1427,21412.5,4673.0,221.44499799999997
1428,21427.5,4662.2002,221.42849999999999
1429,21442.5,4651.400000000001,221.41950099999997
1430,21457.5,4640.5998,221.41050199999998
1431,21472.5,4629.8,221.40149899999997
1432,21487.5,4618.9999,221.39249999999998
1433,21502.5,4608.2001,221.38350099999997
1434,21517.5,4597.3999,221.374499
1435,21532.5,4586.75,221.36549999999997
1436,21547.5,4576.2501,221.35650099999998
1437,21562.5,4565.7501,221.34749799999997
1438,21577.5,4555.2501999999995,221.33849899999998
1439,21592.5,4544.7498000000005,221.329501
1440,21607.5,4534.2499,221.32050199999998
1441,21622.5,4523.7499,221.31149899999997
1442,21637.5,4513.25,221.30249999999998
1443,21652.5,4502.75,221.293501
1444,21667.5,4492.250099999999,221.28449899999998
1445,21682.5,4481.900000000001,221.276999
1446,21697.5,4471.6999000000005,221.27099799999996
1447,21712.5,4461.5001999999995,221.26500199999998
1448,21727.5,4451.3,221.26049999999998
1449,21742.5,4441.099899999999,221.26349899999997
1450,21757.5,4430.8998,221.26650099999998
1451,21772.5,4420.7001,221.26949899999997
1452,21787.5,4410.5,221.27250099999998
1453,21802.5,4400.2998,221.27549999999997
1454,21817.5,4390.1001,221.27850199999997
1455,21832.5,4379.9,221.2815
1456,21847.5,4369.6999,221.28449899999998
1457,21862.5,4359.5001,221.28750099999996
1458,21877.5,4349.349999999999,221.29049899999998
1459,21892.5,4339.4501,221.293501
1460,21907.5,4329.5502,221.29649999999998
1461,21922.5,4319.6499,221.29950199999996
1462,21937.5,4309.5001,221.30249999999998
1463,21952.5,4299.3,221.30549899999997
1464,21967.5,4289.0999,221.30850099999998
1465,21982.5,4279.2,221.312998
1466,21997.5,4269.5999,221.31899899999996
1467,22012.5,4259.9998,221.324999
1468,22027.5,4250.3502,221.33099999999996
1469,22042.5,4240.4499000000005,221.337
1470,22057.5,4230.55,221.343001
1471,22072.5,4220.650100000001,221.349001
1472,22087.5,4210.7498,221.35500199999998
1473,22102.5,4200.8499,221.360999
1474,22117.5,4190.95,221.36699899999996
1475,22132.5,4181.2,221.373
1476,22147.5,4171.6,221.37899999999996
1477,22162.5,4161.9999,221.385001
1478,22177.5,4152.3998,221.39100099999996
1479,22192.5,4142.8001,221.397002
1480,22207.5,4133.2001,221.40299799999997
1481,22222.5,4123.599999999999,221.408999
1482,22237.5,4114.2502,221.41499899999997
1483,22252.5,4104.95,221.421
1484,22267.5,4095.6501000000003,221.42699999999996
1485,22282.5,4086.2000000000003,221.42999899999998
1486,22297.5,4076.5999,221.42999899999998
1487,22312.5,4066.9998,221.42999899999998
1488,22327.5,4057.4501,221.42799999999997
1489,22342.5,4048.1499,221.41599899999997
1490,22357.5,4038.85,221.404002
1491,22372.5,4029.5501999999997,221.392001
1492,22387.5,4020.2499000000003,221.38249799999997
1493,22402.5,4010.9501,221.37349899999998
1494,22417.5,4001.6499000000003,221.36449999999996
1495,22432.5,3992.35,221.35550199999997
1496,22447.5,3983.0502,221.346499
1497,22462.5,3973.7499,221.33749999999998
1498,22477.5,3964.5000000000005,221.32800099999997
1499,22492.5,3955.5,221.31599999999997
1500,22507.5,3946.5000000000005,221.30399899999998
1501,22522.5,3937.5,221.29199799999998
1502,22537.5,3928.4999999999995,221.28249999999997
1503,22552.5,3919.5,221.27350099999998
1504,22567.5,3910.4999999999995,221.26449799999997
1505,22582.5,3901.4999000000003,221.26299899999998
1506,22597.5,3892.4999,221.26899899999998
1507,22612.5,3883.4999000000003,221.27499999999998
1508,22627.5,3874.4999,221.28349899999998
1509,22642.5,3865.4999,221.30449899999996
1510,22657.5,3856.4999,221.32549899999998
1511,22672.5,3847.4998,221.346499
1512,22687.5,3838.4998000000005,221.37000099999997
1513,22702.5,3829.4998,221.39399899999998
1514,22717.5,3820.5002,221.41800199999997
1515,22732.5,3811.6501,221.44199999999998
1516,22747.5,3802.9499,221.46600199999997
1517,22762.5,3794.2501,221.48999999999998
1518,22777.5,3785.5499,221.51349899999997
1519,22792.5,3776.8501,221.53449899999998
1520,22807.5,3768.1499000000003,221.55549899999997
1521,22822.5,3759.4501,221.576498
1522,22837.5,3750.75,221.60000099999996
1523,22852.5,3742.0501999999997,221.62399899999997
1524,22867.5,3733.35,221.64800099999997
1525,22882.5,3724.8001000000004,221.67049999999998
1526,22897.5,3716.4001,221.69149999999996
1527,22912.5,3708.0002,221.71249999999998
1528,22927.5,3699.5499000000004,221.73299999999998
1529,22942.5,3690.8501,221.75100199999997
1530,22957.5,3682.1499000000003,221.76899899999998
1531,22972.5,3673.4501,221.78700099999998
1532,22987.5,3665.0002,221.80499899999998
1533,23002.5,3656.6002,221.82299999999998
1534,23017.5,3648.1998,221.84100199999997
1535,23032.5,3639.7999,221.85899999999998
1536,23047.5,3631.3999000000003,221.87700099999998
1537,23062.5,3622.9999999999995,221.89499899999998
1538,23077.5,3614.6,221.91299999999998
1539,23092.5,3606.2,221.930998
1540,23107.5,3597.8001,221.94899999999998
1541,23122.5,3589.4001000000003,221.96700099999998
1542,23137.5,3581.25,221.984999
1543,23152.5,3573.1499,222.00300099999998
1544,23167.5,3565.0501,222.02099799999996
1545,23182.5,3556.95,222.045
1546,23197.5,3548.8498999999997,222.074999
1547,23212.5,3540.7501,222.10500199999998
1548,23227.5,3532.65,222.13649999999998
1549,23242.5,3524.5499000000004,222.17550099999997
1550,23257.5,3516.4501,222.214499
1551,23272.5,3508.35,222.25349999999997
1552,23287.5,3500.2499,222.28999899999997
1553,23302.5,3492.1501,222.32599899999997
1554,23317.5,3484.0499999999997,222.36200199999996
1555,23332.5,3475.9498999999996,222.3995
1556,23347.5,3467.8500999999997,222.43850199999997
1557,23362.5,3459.7499999999995,222.47749899999997
1558,23377.5,3451.6998000000003,222.51650099999998
1559,23392.5,3443.8999000000003,222.55549899999997
1560,23407.5,3436.1,222.59449999999998
1561,23422.5,3428.3001,222.63350099999997
1562,23437.5,3420.5002,222.672499
1563,23452.5,3412.6998999999996,222.71150099999997
1564,23467.5,3404.9,222.750498
1565,23482.5,3397.1001,222.79549999999998
1566,23497.5,3389.3002,222.846499
1567,23512.5,3381.4999,222.89750099999998
1568,23527.5,3373.7000000000003,222.949999
1569,23542.5,3365.9,223.010001
1570,23557.5,3358.1001,223.06999799999997
1571,23572.5,3350.2998,223.12999999999997
1572,23587.5,3342.4999,223.19000099999997
1573,23602.5,3334.7000000000003,223.24999799999998
1574,23617.5,3326.9001000000003,223.30999999999997
1575,23632.5,3319.2501,223.37000099999997
1576,23647.5,3311.75,223.42999899999998
1577,23662.5,3304.2499999999995,223.48999999999998
1578,23677.5,3296.7499,223.55000199999998
1579,23692.5,3289.2502,223.609999
1580,23707.5,3281.7501,223.67
1581,23722.5,3274.25,223.73000199999998
1582,23737.5,3266.7499999999995,223.78999899999997
1583,23752.5,3259.2499,223.85000099999996
1584,23767.5,3251.7502,223.90999799999997
1585,23782.5,3244.2501,223.959502
1586,23797.5,3236.75,223.99849899999998
1587,23812.5,3229.2499999999995,224.03750099999996
1588,23827.5,3221.7999,224.07549899999998
1589,23842.5,3214.6,224.1085
1590,23857.5,3207.4001000000003,224.14150099999998
1591,23872.5,3200.1998999999996,224.17450199999996
1592,23887.5,3193.0,224.20749899999998
1593,23902.5,3185.8,224.24049999999997
1594,23917.5,3178.5999,224.27350099999998
1595,23932.5,3171.4001,224.30650199999997
1596,23947.5,3164.2,224.339499
1597,23962.5,3157.0,224.37249999999997
1598,23977.5,3149.7999,224.405501
1599,23992.5,3142.6001,224.43850199999997
1600,24007.5,3135.4,224.471499
1601,24022.5,3128.2,224.50449999999998
1602,24037.5,3120.9999,224.53750099999996
1603,24052.5,3113.8,224.57050199999998
1604,24067.5,3106.6,224.60349899999997
1605,24082.5,3099.5501,224.62600199999997
1606,24097.5,3092.65,224.63799899999998
1607,24112.5,3085.75,224.64999999999998
1608,24127.5,3078.8,224.65749999999997
1609,24142.5,3071.6,224.64249999999998
1610,24157.5,3064.3999,224.62750099999997
1611,24172.5,3057.2001,224.61250199999998
1612,24187.5,3050.2500999999997,224.59749799999997
1613,24202.5,3043.35,224.58249899999998
1614,24217.5,3036.45,224.56749999999997
1615,24232.5,3029.55,224.55249999999998
1616,24247.5,3022.65,224.53750099999996
1617,24262.5,3015.7499000000003,224.52250099999998
1618,24277.5,3008.8498999999997,224.50699799999998
1619,24292.5,3001.9501,224.48900099999997
1620,24307.5,2995.05,224.47099899999998
1621,24322.5,2988.15,224.45300099999997
1622,24337.5,2981.5000999999997,224.43749799999998
1623,24352.5,2974.9001,224.422499
1624,24367.5,2968.3001,224.40749999999997
1625,24382.5,2961.5499,224.40600099999997
1626,24397.5,2954.6499,224.41800199999997
1627,24412.5,2947.7501,224.42999899999998
1628,24427.5,2940.9,224.44550199999998
1629,24442.5,2934.3,224.47849899999997
1630,24457.5,2927.7000000000003,224.51149999999998
1631,24472.5,2921.1,224.54450099999997
1632,24487.5,2914.5,224.57999999999998
1633,24502.5,2907.9,224.61599999999999
1634,24517.5,2901.3,224.651999
1635,24532.5,2894.7001,224.68649899999997
1636,24547.5,2888.1001,224.71949999999998
1637,24562.5,2881.5000999999997,224.75250099999997
1638,24577.5,2874.9001,224.78600199999997
1639,24592.5,2868.3001,224.82200099999997
1640,24607.5,2861.7001,224.85799999999998
1641,24622.5,2855.1001,224.89399899999998
1642,24637.5,2848.7499,224.92749999999998
1643,24652.5,2842.45,224.96050099999997
1644,24667.5,2836.15,224.993498
1645,24682.5,2829.7001,225.02799799999997
1646,24697.5,2823.1001,225.06400099999996
1647,24712.5,2816.5001,225.10000099999996
1648,24727.5,2809.9501,225.13599999999997
1649,24742.5,2803.6501000000003,225.17199899999997
1650,24757.5,2797.3499,225.20799899999997
1651,24772.5,2791.0499999999997,225.24400199999997
1652,24787.5,2784.75,225.28000099999997
1653,24802.5,2778.4500000000003,225.31599999999997
1654,24817.5,2772.15,225.35199999999998
1655,24832.5,2765.8501,225.38799899999998
1656,24847.5,2759.5501,225.42399799999998
1657,24862.5,2753.2499000000003,225.46000099999998
1658,24877.5,2746.95,225.49649999999997
1659,24892.5,2740.65,225.53550199999998
1660,24907.5,2734.35,225.57449999999997
1661,24922.5,2728.05,225.61350099999999
1662,24937.5,2721.9999000000003,225.64999999999998
1663,24952.5,2716.0,225.68599899999998
1664,24967.5,2710.0,225.72199899999998
1665,24982.5,2703.85,225.75649899999996
1666,24997.5,2697.55,225.78949999999998
1667,25012.5,2691.25,225.822501
1668,25027.5,2685.0,225.85500199999998
1669,25042.5,2679.0001,225.885001
1670,25057.5,2673.0,225.91499899999997
1671,25072.5,2667.0,225.94499799999997
1672,25087.5,2661.0001,225.97500099999996
1673,25102.5,2654.9999,226.00499999999997
1674,25117.5,2649.0,226.03499799999997
1675,25132.5,2643.0,226.06500099999997
1676,25147.5,2637.0000999999997,226.09499999999997
1677,25162.5,2630.9999000000003,226.12499799999998
1678,25177.5,2625.0,226.15500099999997
1679,25192.5,2619.0000999999997,226.18499999999997
1680,25207.5,2612.9999000000003,226.21499899999998
1681,25222.5,2607.0,226.24500099999997
1682,25237.5,2601.2501,226.27499999999998
1683,25252.5,2595.55,226.30499899999998
1684,25267.5,2589.85,226.33500099999998
1685,25282.5,2584.0,226.36950099999999
1686,25297.5,2578.0000999999997,226.40849899999998
1687,25312.5,2571.9999000000003,226.447501
1688,25327.5,2566.0499999999997,226.48850099999999
1689,25342.5,2560.35,226.53949999999998
1690,25357.5,2554.6499,226.59049799999997
1691,25372.5,2548.95,226.64150099999998
1692,25387.5,2543.2500999999997,226.69499799999997
1693,25402.5,2537.5499999999997,226.74899899999997
1694,25417.5,2531.8501,226.80299999999997
1695,25432.5,2526.1499,226.85550199999997
1696,25447.5,2520.45,226.9065
1697,25462.5,2514.7499,226.95749899999998
1698,25477.5,2509.0499999999997,227.00850099999997
1699,25492.5,2503.3501,227.05949999999999
1700,25507.5,2497.65,227.11049899999998
1701,25522.5,2491.95,227.161501
1702,25537.5,2486.5,227.21249999999998
1703,25552.5,2481.1001,227.26349899999997
1704,25567.5,2475.7000000000003,227.31450099999998
1705,25582.5,2470.15,227.35949899999997
1706,25597.5,2464.4501,227.39850099999998
1707,25612.5,2458.75,227.43749799999998
1708,25627.5,2453.1,227.47249799999997
1709,25642.5,2447.6999,227.48750199999998
1710,25657.5,2442.2999999999997,227.50250099999997
1711,25672.5,2436.8999,227.51749999999998
1712,25687.5,2431.25,227.53000099999997
1713,25702.5,2425.5501,227.54199799999998
1714,25717.5,2419.85,227.55399899999998
1715,25732.5,2414.3,227.56599999999997
1716,25747.5,2408.9001,227.57800099999997
1717,25762.5,2403.5,227.58999899999998
1718,25777.5,2398.1001,227.60199999999998
1719,25792.5,2392.7,227.61400099999997
1720,25807.5,2387.2999,227.62600199999997
1721,25822.5,2381.9,227.63799899999998
1722,25837.5,2376.75,227.64999999999998
1723,25852.5,2371.6499,227.66200099999998
1724,25867.5,2366.5501,227.67399799999998
1725,25882.5,2361.3001,227.68900099999996
1726,25897.5,2355.9,227.70699899999997
1727,25912.5,2350.4999000000003,227.72500099999996
1728,25927.5,2345.15,227.74649999999997
1729,25942.5,2340.0499,227.78550199999998
1730,25957.5,2334.9501,227.82449999999997
1731,25972.5,2329.85,227.86350099999999
1732,25987.5,2324.5000999999997,227.90500099999997
1733,26002.5,2319.1,227.94700099999997
1734,26017.5,2313.6999,227.98900099999997
1735,26032.5,2308.4499,228.03100099999997
1736,26047.5,2303.3501,228.07299999999998
1737,26062.5,2298.25,228.11499999999998
1738,26077.5,2293.1499,228.1565
1739,26092.5,2288.0501,228.19550199999998
1740,26107.5,2282.95,228.23449899999997
1741,26122.5,2277.85,228.27350099999998
1742,26137.5,2272.7501,228.31500099999997
1743,26152.5,2267.65,228.35700099999997
1744,26167.5,2262.5499999999997,228.39900099999997
1745,26182.5,2257.4499,228.44099999999997
1746,26197.5,2252.35,228.48299999999998
1747,26212.5,2247.25,228.52499999999998
1748,26227.5,2242.1499,228.561999
1749,26242.5,2237.0501,228.57399999999998
1750,26257.5,2231.9500000000003,228.58600099999998
1751,26272.5,2226.8498999999997,228.59800199999998
1752,26287.5,2221.9999000000003,228.60500199999998
1753,26302.5,2217.2001,228.610999
1754,26317.5,2212.4001,228.61699899999996
1755,26332.5,2207.4499,228.623
1756,26347.5,2202.35,228.62899999999996
1757,26362.5,2197.25,228.635001
1758,26377.5,2192.2001,228.64050099999997
1759,26392.5,2187.4001,228.64349999999996
1760,26407.5,2182.6,228.64649799999998
1761,26422.5,2177.7999999999997,228.6495
1762,26437.5,2173.0,228.65500099999997
1763,26452.5,2168.1999,228.66100199999997
1764,26467.5,2163.4001000000003,228.66699799999998
1765,26482.5,2158.6,228.67299899999998
1766,26497.5,2153.8,228.67899899999998
1767,26512.5,2149.0,228.68499999999997
1768,26527.5,2144.1999,228.68950099999998
1769,26542.5,2139.3999,228.68649899999997
1770,26557.5,2134.6001,228.68350099999998
1771,26572.5,2129.7999999999997,228.68049899999997
1772,26587.5,2125.0,228.67
1773,26602.5,2120.2000000000003,228.65799899999996
1774,26617.5,2115.3999,228.64599799999996
1775,26632.5,2110.6001,228.63549999999998
1776,26647.5,2105.8001,228.62650099999996
1777,26662.5,2101.0,228.61749899999998
1778,26677.5,2096.25,228.60799999999998
1779,26692.5,2091.75,228.59599899999998
1780,26707.5,2087.2499000000003,228.58399799999998
1781,26722.5,2082.7499,228.57200099999997
1782,26737.5,2078.0000999999997,228.56249799999998
1783,26752.5,2073.2,228.55349999999999
1784,26767.5,2068.4,228.54450099999997
1785,26782.5,2063.7501,228.533999
1786,26797.5,2059.2500999999997,228.522002
1787,26812.5,2054.7501,228.510001
1788,26827.5,2050.2001,228.500498
1789,26842.5,2045.4,228.50349999999997
1790,26857.5,2040.6,228.50649899999996
1791,26872.5,2035.8,228.50950099999997
1792,26887.5,2031.25,228.53750099999996
1793,26902.5,2026.7499999999998,228.57050199999998
1794,26917.5,2022.25,228.60349899999997
1795,26932.5,2017.7499999999998,228.63649999999998
1796,26947.5,2013.25,228.66950099999997
1797,26962.5,2008.7499999999998,228.70250199999998
1798,26977.5,2004.25,228.734999
1799,26992.5,1999.7499,228.76500199999998
1800,27007.5,1995.2499,228.795
1801,27022.5,1990.7499000000003,228.824999
1802,27037.5,1986.4999999999998,228.8575
1803,27052.5,1982.3,228.89050099999997
1804,27067.5,1978.1,228.923499
1805,27082.5,1973.7499,228.95649899999998
1806,27097.5,1969.2499000000003,228.98949999999996
1807,27112.5,1964.7499,229.02250099999998
1808,27127.5,1960.2501,229.05499899999998
1809,27142.5,1955.7500999999997,229.08500099999998
1810,27157.5,1951.2501,229.11499999999998
1811,27172.5,1946.7500999999997,229.14499899999998
1812,27187.5,1942.4999,229.17500199999998
1813,27202.5,1938.2999000000002,229.20499999999998
1814,27217.5,1934.1000000000001,229.234999
1815,27232.5,1929.8999999999999,229.26199999999997
1816,27247.5,1925.7,229.28600199999997
1817,27262.5,1921.5,229.30999999999997
1818,27277.5,1917.2501,229.334502
1819,27292.5,1912.7501,229.36149799999998
1820,27307.5,1908.25,229.38849899999997
1821,27322.5,1903.7500000000002,229.41549899999998
1822,27337.5,1899.5000999999997,229.44249999999997
1823,27352.5,1895.2998999999998,229.46949999999998
1824,27367.5,1891.0999,229.49649999999997
1825,27382.5,1886.8999,229.522002
1826,27397.5,1882.7000000000003,229.546
1827,27412.5,1878.5,229.56999799999997
1828,27427.5,1874.3,229.59449999999998
1829,27442.5,1870.1000000000001,229.62149999999997
1830,27457.5,1865.8999999999999,229.64850099999998
1831,27472.5,1861.7000999999998,229.67550099999997
1832,27487.5,1857.7499,229.699999
1833,27502.5,1853.85,229.724001
1834,27517.5,1849.95,229.748
1835,27532.5,1845.8999999999999,229.76749999999998
1836,27547.5,1841.7000000000003,229.78249999999997
1837,27562.5,1837.5,229.797499
1838,27577.5,1833.2999999999997,229.812998
1839,27592.5,1829.1000000000001,229.83099999999996
1840,27607.5,1824.9001,229.849001
1841,27622.5,1820.7001000000002,229.86699899999996
1842,27637.5,1816.75,229.88249799999997
1843,27652.5,1812.85,229.89750099999998
1844,27667.5,1808.95,229.91250099999996
1845,27682.5,1804.8999999999999,229.92749999999998
1846,27697.5,1800.7,229.94249999999997
1847,27712.5,1796.5,229.95749899999998
1848,27727.5,1792.3500000000001,229.97300199999998
1849,27742.5,1788.4501,229.99099999999999
1850,27757.5,1784.5501,230.00900099999998
1851,27772.5,1780.6499,230.026999
1852,27787.5,1776.7499999999998,230.04250199999998
1853,27802.5,1772.8500000000001,230.05750099999997
1854,27817.5,1768.9501,230.072501
1855,27832.5,1765.0499,230.08749999999998
1856,27847.5,1761.1499999999999,230.10249899999997
1857,27862.5,1757.2500000000002,230.11749899999998
1858,27877.5,1753.3501,230.13249799999997
1859,27892.5,1749.4499,230.14750099999998
1860,27907.5,1745.5500000000002,230.16250099999996
1861,27922.5,1741.6499999999999,230.17749999999998
1862,27937.5,1737.7501,230.19249999999997
1863,27952.5,1733.8499,230.20749899999998
1864,27967.5,1729.9499999999998,230.22249799999997
1865,27982.5,1726.05,230.23750199999998
1866,27997.5,1722.1499999999999,230.25250099999997
1867,28012.5,1718.2500999999997,230.26749999999998
1868,28027.5,1714.3999000000001,230.28199999999998
1869,28042.5,1710.8,230.29400099999998
1870,28057.5,1707.2001,230.305998
1871,28072.5,1703.5999,230.317999
1872,28087.5,1699.7499,230.33249899999998
1873,28102.5,1695.8500000000001,230.34749799999997
1874,28117.5,1691.9499999999998,230.36250199999998
1875,28132.5,1688.2,230.37750099999997
1876,28147.5,1684.6001,230.39249999999998
1877,28162.5,1680.9999,230.40749999999997
1878,28177.5,1677.35,230.41900099999998
1879,28192.5,1673.4501000000002,230.41299999999998
1880,28207.5,1669.5499000000002,230.40699999999998
1881,28222.5,1665.65,230.40099899999998
1882,28237.5,1662.0000999999997,230.39750099999998
1883,28252.5,1658.3999999999999,230.39449899999997
1884,28267.5,1654.7999999999997,230.39150099999998
1885,28282.5,1651.1998999999998,230.38699999999997
1886,28297.5,1647.6,230.38099899999997
1887,28312.5,1644.0001,230.37499799999998
1888,28327.5,1640.3999,230.36950099999999
1889,28342.5,1636.8,230.36649899999998
1890,28357.5,1633.2001000000002,230.36350099999999
1891,28372.5,1629.6,230.36049899999998
1892,28387.5,1626.0000000000002,230.35500199999998
1893,28402.5,1622.4001,230.349001
1894,28417.5,1618.8,230.343001
1895,28432.5,1615.2,230.33849899999998
1896,28447.5,1611.5999,230.33550099999997
1897,28462.5,1607.9999999999998,230.33249899999998
1898,28477.5,1604.4001,230.33299899999997
1899,28492.5,1600.7999000000002,230.35099999999997
1900,28507.5,1597.2,230.36900199999997
1901,28522.5,1593.6,230.38699999999997
1902,28537.5,1590.0,230.42
1903,28552.5,1586.4,230.45599999999996
1904,28567.5,1582.8,230.49199899999996
1905,28582.5,1579.2,230.52799799999997
1906,28597.5,1575.6,230.56400099999996
1907,28612.5,1572.0,230.60000099999996
1908,28627.5,1568.45,230.63599999999997
1909,28642.5,1565.15,230.67199899999997
1910,28657.5,1561.85,230.70799899999997
1911,28672.5,1558.55,230.74400199999997
1912,28687.5,1555.0,230.78000099999997
1913,28702.5,1551.3999999999999,230.81599999999997
1914,28717.5,1547.8,230.85199999999998
1915,28732.5,1544.35,230.88649999999998
1916,28747.5,1541.0500000000002,230.91950099999997
1917,28762.5,1537.75,230.95250199999998
1918,28777.5,1534.45,230.985999
1919,28792.5,1531.15,231.022002
1920,28807.5,1527.85,231.058001
1921,28822.5,1524.55,231.094
1922,28837.5,1521.0,231.08999899999998
1923,28852.5,1517.3999999999999,231.07800099999997
1924,28867.5,1513.8,231.06599999999997
1925,28882.5,1510.3500000000001,231.05100099999999
1926,28897.5,1507.05,231.03299899999996
1927,28912.5,1503.75,231.01500199999998
1928,28927.5,1500.45,230.99649999999997
1929,28942.5,1497.15,230.97549999999998
1930,28957.5,1493.85,230.954501
1931,28972.5,1490.55,230.93350099999998
1932,28987.5,1487.25,230.91499899999997
1933,29002.5,1483.9499999999998,230.897002
1934,29017.5,1480.65,230.87899999999996
1935,29032.5,1477.3500000000001,230.85949899999997
1936,29047.5,1474.0500000000002,230.83849899999998
1937,29062.5,1470.75,230.81749999999997
1938,29077.5,1467.5,230.79699899999997
1939,29092.5,1464.5,230.779002
1940,29107.5,1461.5,230.76099999999997
1941,29122.5,1458.5,230.74299899999997
1942,29137.5,1455.25,230.72249799999997
1943,29152.5,1451.95,230.701498
1944,29167.5,1448.6499999999999,230.68049899999997
1945,29182.5,1445.35,230.664
1946,29197.5,1442.05,230.651999
1947,29212.5,1438.75,230.64000199999998
1948,29227.5,1435.5,230.62750099999997
1949,29242.5,1432.5,230.61250199999998
1950,29257.5,1429.5,230.59749799999997
1951,29272.5,1426.5,230.58249899999998
1952,29287.5,1423.25,230.56749999999997
1953,29302.5,1419.95,230.55249999999998
1954,29317.5,1416.6499999999999,230.53750099999996
1955,29332.5,1413.5,230.52250099999998
1956,29347.5,1410.5,230.50749799999997
1957,29362.5,1407.5,230.49249899999998
1958,29377.5,1404.4499999999998,230.47749899999997
1959,29392.5,1401.15,230.46249999999998
1960,29407.5,1397.8500000000001,230.447501
1961,29422.5,1394.55,230.43250099999997
1962,29437.5,1391.5,230.41750199999998
1963,29452.5,1388.5,230.40249899999998
1964,29467.5,1385.5,230.387499
1965,29482.5,1382.5,230.37249999999997
1966,29497.5,1379.5,230.3575
1967,29512.5,1376.5,230.34250099999997
1968,29527.5,1373.5,230.33199899999997
1969,29542.5,1370.5,230.344
1970,29557.5,1367.5,230.356001
1971,29572.5,1364.5,230.36799899999997
1972,29587.5,1361.5,230.387499
1973,29602.5,1358.5,230.40849899999998
1974,29617.5,1355.5,230.42949899999996
1975,29632.5,1352.5,230.44899999999998
1976,29647.5,1349.5,230.46700099999998
1977,29662.5,1346.5,230.484999
1978,29677.5,1343.5,230.50349999999997
1979,29692.5,1340.5,230.5245
1980,29707.5,1337.5,230.54549999999998
1981,29722.5,1334.5,230.56649999999996
1982,29737.5,1331.5,230.58500099999998
1983,29752.5,1328.5,230.60299899999998
1984,29767.5,1325.5,230.62100099999998
1985,29782.5,1322.5,230.638998
1986,29797.5,1319.5,230.65699999999998
1987,29812.5,1316.5,230.67500199999998
1988,29827.5,1313.5,230.69349899999997
1989,29842.5,1310.5,230.714499
1990,29857.5,1307.5,230.73549899999998
1991,29872.5,1304.5,230.75649899999996
1992,29887.5,1301.75,230.78000099999997
1993,29902.5,1299.0500000000002,230.80399899999998
1994,29917.5,1296.35,230.82800099999997
1995,29932.5,1293.5,230.85199999999998
1996,29947.5,1290.5,230.87600199999997
1997,29962.5,1287.5,230.89999999999998
1998,29977.5,1284.5,230.92399799999998
